0.0
766.0
766.0
766.0
766.0
766.0
766.0
766.0
766.0
766.0
766.0
766.0
766.0
766.0
766.0
766.0
766.0
766.0
766.0
766.0
765.0
766.0
766.0
766.0
766.0
766.0
766.0
766.0
766.0
766.0
766.0
766.0
766.0
766.0
766.0
766.0
766.0
766.0
764.0
762.0
760.0
758.0
756.0
754.0
751.0
750.0
748.0
746.0
743.0
741.0
739.0
737.0
734.0
731.0
728.0
726.0
723.0
721.0
718.0
716.0
713.0
711.0
708.0
705.0
702.0
700.0
698.0
695.0
693.0
690.0
688.0
686.0
683.0
681.0
679.0
677.0
675.0
673.0
671.0
668.0
667.0
665.0
663.0
661.0
658.0
657.0
655.0
653.0
651.0
649.0
647.0
645.0
644.0
642.0
640.0
638.0
636.0
634.0
632.0
630.0
628.0
626.0
624.0
622.0
621.0
621.0
621.0
622.0
623.0
625.0
627.0
629.0
630.0
631.0
632.0
632.0
631.0
631.0
628.0
626.0
625.0
623.0
621.0
618.0
616.0
614.0
612.0
610.0
608.0
607.0
605.0
604.0
603.0
601.0
599.0
598.0
596.0
595.0
594.0
592.0
591.0
590.0
590.0
589.0
587.0
587.0
587.0
586.0
585.0
585.0
584.0
582.0
581.0
581.0
579.0
578.0
576.0
575.0
574.0
572.0
557.0
513.0
512.0
511.0
510.0
508.0
507.0
506.0
504.0
502.0
494.0
487.0
486.0
486.0
486.0
486.0
485.0
484.0
484.0
483.0
483.0
482.0
482.0
482.0
482.0
482.0
482.0
482.0
480.0
480.0
479.0
479.0
478.0
477.0
478.0
478.0
478.0
477.0
478.0
477.0
477.0
477.0
478.0
478.0
478.0
477.0
477.0
477.0
476.0
475.0
475.0
474.0
473.0
472.0
472.0
471.0
469.0
469.0
468.0
467.0
466.0
465.0
464.0
463.0
462.0
461.0
461.0
460.0
459.0
458.0
457.0
456.0
456.0
454.0
455.0
454.0
454.0
453.0
453.0
453.0
452.0
451.0
452.0
451.0
450.0
449.0
449.0
449.0
448.0
447.0
447.0
446.0
445.0
445.0
444.0
444.0
444.0
444.0
446.0
448.0
451.0
454.0
458.0
462.0
465.0
467.0
471.0
473.0
475.0
476.0
477.0
477.0
477.0
477.0
477.0
476.0
475.0
474.0
474.0
474.0
473.0
473.0
473.0
473.0
472.0
471.0
471.0
470.0
470.0
469.0
469.0
469.0
469.0
469.0
470.0
470.0
471.0
471.0
473.0
474.0
475.0
474.0
475.0
476.0
476.0
476.0
476.0
476.0
475.0
474.0
474.0
474.0
473.0
472.0
472.0
471.0
470.0
468.0
467.0
466.0
465.0
464.0
463.0
462.0
462.0
461.0
460.0
459.0
457.0
457.0
456.0
456.0
456.0
455.0
454.0
454.0
453.0
453.0
452.0
452.0
451.0
451.0
451.0
450.0
450.0
449.0
449.0
448.0
447.0
447.0
446.0
446.0
446.0
447.0
448.0
449.0
452.0
455.0
458.0
462.0
466.0
468.0
471.0
474.0
476.0
478.0
478.0
478.0
479.0
478.0
478.0
477.0
477.0
476.0
476.0
475.0
474.0
473.0
474.0
473.0
473.0
473.0
472.0
471.0
471.0
470.0
470.0
469.0
469.0
469.0
470.0
470.0
470.0
470.0
471.0
472.0
472.0
471.0
471.0
472.0
471.0
471.0
471.0
470.0
470.0
469.0
469.0
468.0
467.0
466.0
465.0
464.0
463.0
462.0
461.0
460.0
460.0
459.0
458.0
457.0
456.0
456.0
455.0
454.0
453.0
452.0
452.0
452.0
451.0
450.0
450.0
449.0
449.0
448.0
448.0
447.0
447.0
446.0
447.0
446.0
444.0
444.0
444.0
443.0
442.0
441.0
441.0
440.0
440.0
440.0
440.0
442.0
444.0
447.0
450.0
453.0
457.0
460.0
464.0
467.0
469.0
470.0
472.0
473.0
473.0
473.0
474.0
473.0
472.0
472.0
471.0
470.0
469.0
469.0
469.0
469.0
469.0
468.0
468.0
468.0
467.0
467.0
467.0
466.0
465.0
465.0
465.0
466.0
465.0
465.0
467.0
467.0
467.0
467.0
467.0
468.0
467.0
467.0
468.0
467.0
467.0
466.0
465.0
464.0
463.0
462.0
462.0
461.0
460.0
458.0
457.0
456.0
455.0
454.0
453.0
452.0
451.0
450.0
450.0
448.0
447.0
445.0
445.0
444.0
443.0
441.0
440.0
439.0
438.0
436.0
436.0
435.0
434.0
432.0
432.0
432.0
430.0
429.0
429.0
428.0
427.0
425.0
425.0
424.0
423.0
422.0
421.0
421.0
420.0
420.0
421.0
423.0
425.0
428.0
432.0
435.0
439.0
441.0
444.0
447.0
449.0
450.0
451.0
452.0
452.0
451.0
452.0
451.0
450.0
449.0
449.0
449.0
448.0
447.0
447.0
446.0
447.0
446.0
445.0
445.0
445.0
443.0
443.0
442.0
442.0
441.0
441.0
442.0
441.0
441.0
442.0
442.0
442.0
442.0
443.0
443.0
443.0
443.0
443.0
441.0
442.0
441.0
440.0
440.0
439.0
437.0
437.0
436.0
436.0
435.0
434.0
433.0
433.0
431.0
431.0
430.0
429.0
428.0
428.0
427.0
426.0
425.0
425.0
424.0
424.0
423.0
423.0
422.0
422.0
421.0
421.0
420.0
420.0
420.0
420.0
420.0
419.0
419.0
418.0
418.0
418.0
417.0
416.0
416.0
416.0
415.0
414.0
414.0
413.0
414.0
415.0
416.0
419.0
422.0
427.0
430.0
434.0
437.0
441.0
445.0
447.0
449.0
451.0
452.0
454.0
454.0
454.0
453.0
453.0
454.0
453.0
453.0
452.0
452.0
452.0
452.0
452.0
451.0
452.0
451.0
451.0
451.0
450.0
450.0
449.0
449.0
449.0
448.0
449.0
449.0
450.0
450.0
451.0
451.0
451.0
452.0
452.0
452.0
452.0
452.0
451.0
451.0
451.0
450.0
449.0
449.0
449.0
448.0
447.0
446.0
446.0
445.0
445.0
443.0
443.0
442.0
441.0
440.0
440.0
439.0
438.0
438.0
438.0
438.0
436.0
436.0
436.0
435.0
435.0
434.0
434.0
434.0
433.0
433.0
433.0
432.0
432.0
432.0
433.0
432.0
432.0
432.0
432.0
432.0
431.0
430.0
431.0
431.0
430.0
429.0
430.0
430.0
431.0
434.0
437.0
440.0
444.0
447.0
451.0
454.0
457.0
460.0
463.0
465.0
465.0
466.0
466.0
466.0
466.0
465.0
465.0
464.0
464.0
463.0
463.0
462.0
461.0
460.0
461.0
460.0
459.0
459.0
458.0
458.0
457.0
456.0
456.0
456.0
455.0
455.0
456.0
455.0
455.0
456.0
457.0
457.0
457.0
457.0
458.0
458.0
457.0
456.0
457.0
456.0
455.0
455.0
454.0
453.0
452.0
452.0
452.0
450.0
449.0
448.0
448.0
447.0
447.0
445.0
445.0
444.0
443.0
442.0
441.0
441.0
440.0
439.0
439.0
438.0
438.0
437.0
437.0
437.0
435.0
435.0
435.0
435.0
435.0
433.0
433.0
433.0
432.0
431.0
431.0
430.0
429.0
428.0
429.0
428.0
428.0
428.0
429.0
430.0
431.0
433.0
437.0
440.0
444.0
447.0
451.0
455.0
457.0
459.0
461.0
462.0
463.0
463.0
464.0
464.0
463.0
462.0
461.0
460.0
459.0
458.0
457.0
456.0
456.0
455.0
454.0
454.0
452.0
451.0
451.0
450.0
449.0
448.0
448.0
448.0
448.0
448.0
449.0
450.0
450.0
450.0
450.0
450.0
450.0
450.0
450.0
449.0
449.0
448.0
448.0
447.0
446.0
445.0
444.0
444.0
443.0
441.0
441.0
440.0
439.0
438.0
437.0
437.0
436.0
436.0
435.0
434.0
434.0
432.0
432.0
432.0
431.0
430.0
430.0
430.0
430.0
428.0
429.0
428.0
428.0
428.0
428.0
427.0
427.0
426.0
427.0
426.0
426.0
426.0
425.0
425.0
426.0
426.0
428.0
431.0
434.0
438.0
442.0
445.0
450.0
453.0
456.0
459.0
461.0
462.0
464.0
464.0
465.0
464.0
464.0
463.0
463.0
462.0
461.0
460.0
460.0
459.0
458.0
457.0
456.0
456.0
456.0
455.0
454.0
453.0
453.0
452.0
452.0
452.0
452.0
453.0
453.0
454.0
455.0
455.0
457.0
457.0
457.0
458.0
458.0
458.0
459.0
458.0
458.0
457.0
457.0
456.0
456.0
455.0
454.0
454.0
453.0
452.0
452.0
450.0
450.0
448.0
448.0
448.0
447.0
446.0
445.0
445.0
444.0
443.0
443.0
443.0
442.0
441.0
442.0
440.0
440.0
440.0
441.0
440.0
439.0
438.0
438.0
438.0
438.0
437.0
437.0
437.0
437.0
438.0
440.0
443.0
446.0
450.0
455.0
459.0
462.0
466.0
469.0
472.0
474.0
475.0
477.0
478.0
478.0
478.0
478.0
477.0
476.0
475.0
475.0
473.0
472.0
472.0
471.0
470.0
469.0
469.0
468.0
468.0
467.0
466.0
465.0
465.0
464.0
464.0
465.0
464.0
465.0
465.0
466.0
466.0
467.0
467.0
468.0
469.0
468.0
468.0
469.0
468.0
467.0
467.0
467.0
466.0
465.0
464.0
463.0
463.0
462.0
460.0
460.0
458.0
457.0
456.0
456.0
455.0
454.0
453.0
453.0
452.0
451.0
450.0
450.0
450.0
449.0
448.0
448.0
448.0
447.0
447.0
446.0
446.0
445.0
445.0
445.0
444.0
444.0
444.0
446.0
447.0
449.0
453.0
457.0
462.0
466.0
469.0
473.0
477.0
480.0
481.0
484.0
486.0
486.0
486.0
487.0
486.0
486.0
485.0
485.0
483.0
483.0
482.0
481.0
480.0
480.0
479.0
479.0
478.0
477.0
476.0
476.0
475.0
475.0
474.0
474.0
474.0
474.0
473.0
474.0
474.0
474.0
475.0
475.0
476.0
476.0
475.0
476.0
476.0
475.0
474.0
474.0
473.0
473.0
471.0
471.0
470.0
469.0
468.0
467.0
466.0
465.0
464.0
463.0
462.0
461.0
460.0
459.0
458.0
457.0
456.0
456.0
455.0
454.0
453.0
453.0
452.0
452.0
452.0
451.0
451.0
450.0
449.0
449.0
449.0
448.0
447.0
447.0
447.0
446.0
446.0
446.0
448.0
450.0
453.0
456.0
460.0
465.0
469.0
474.0
477.0
481.0
483.0
486.0
487.0
488.0
489.0
489.0
489.0
488.0
488.0
487.0
486.0
485.0
484.0
484.0
483.0
483.0
483.0
482.0
482.0
481.0
480.0
480.0
479.0
479.0
477.0
477.0
477.0
477.0
477.0
477.0
477.0
478.0
478.0
479.0
478.0
479.0
479.0
479.0
478.0
478.0
477.0
477.0
476.0
476.0
474.0
473.0
472.0
471.0
470.0
470.0
468.0
467.0
466.0
465.0
464.0
463.0
462.0
461.0
460.0
460.0
459.0
458.0
457.0
457.0
456.0
456.0
455.0
454.0
454.0
455.0
454.0
453.0
453.0
453.0
452.0
452.0
451.0
451.0
450.0
450.0
449.0
449.0
449.0
450.0
451.0
455.0
458.0
462.0
466.0
471.0
475.0
479.0
483.0
486.0
489.0
491.0
492.0
492.0
493.0
492.0
492.0
491.0
490.0
489.0
488.0
488.0
486.0
485.0
485.0
485.0
485.0
483.0
482.0
482.0
481.0
480.0
479.0
479.0
479.0
478.0
478.0
478.0
478.0
478.0
479.0
480.0
480.0
480.0
480.0
480.0
480.0
479.0
479.0
479.0
478.0
477.0
476.0
475.0
475.0
474.0
472.0
472.0
470.0
469.0
468.0
468.0
466.0
465.0
464.0
464.0
463.0
461.0
460.0
460.0
459.0
459.0
457.0
457.0
457.0
456.0
456.0
455.0
454.0
454.0
453.0
454.0
453.0
453.0
451.0
451.0
451.0
450.0
449.0
449.0
449.0
448.0
447.0
447.0
448.0
448.0
449.0
452.0
456.0
460.0
464.0
468.0
472.0
477.0
480.0
484.0
486.0
489.0
490.0
491.0
492.0
491.0
491.0
491.0
490.0
488.0
486.0
486.0
485.0
484.0
484.0
483.0
483.0
482.0
481.0
481.0
480.0
479.0
477.0
477.0
477.0
477.0
475.0
476.0
476.0
476.0
476.0
476.0
476.0
477.0
476.0
477.0
476.0
476.0
476.0
475.0
474.0
474.0
472.0
471.0
470.0
469.0
468.0
467.0
466.0
465.0
463.0
462.0
461.0
460.0
459.0
459.0
458.0
456.0
455.0
454.0
454.0
453.0
451.0
451.0
450.0
450.0
449.0
448.0
448.0
447.0
447.0
447.0
446.0
446.0
445.0
445.0
444.0
444.0
443.0
443.0
443.0
442.0
441.0
440.0
440.0
439.0
439.0
439.0
438.0
438.0
439.0
441.0
443.0
446.0
450.0
455.0
459.0
464.0
469.0
472.0
475.0
479.0
481.0
483.0
483.0
483.0
483.0
483.0
482.0
482.0
479.0
479.0
478.0
478.0
477.0
476.0
475.0
475.0
474.0
473.0
471.0
471.0
470.0
469.0
469.0
468.0
467.0
468.0
468.0
468.0
468.0
468.0
468.0
469.0
469.0
469.0
469.0
469.0
468.0
468.0
468.0
467.0
465.0
464.0
464.0
463.0
461.0
460.0
459.0
458.0
457.0
457.0
455.0
454.0
453.0
453.0
451.0
451.0
449.0
449.0
448.0
447.0
446.0
446.0
445.0
445.0
444.0
444.0
443.0
443.0
443.0
442.0
441.0
441.0
440.0
440.0
440.0
440.0
439.0
439.0
438.0
438.0
438.0
437.0
436.0
436.0
435.0
434.0
433.0
432.0
432.0
432.0
433.0
434.0
437.0
441.0
445.0
449.0
453.0
458.0
463.0
467.0
470.0
473.0
474.0
476.0
477.0
478.0
477.0
476.0
475.0
475.0
474.0
472.0
471.0
470.0
469.0
468.0
467.0
467.0
466.0
464.0
463.0
462.0
461.0
461.0
460.0
460.0
460.0
459.0
459.0
460.0
460.0
461.0
461.0
461.0
461.0
462.0
462.0
462.0
461.0
461.0
460.0
460.0
459.0
457.0
456.0
456.0
455.0
454.0
452.0
451.0
449.0
448.0
447.0
446.0
445.0
443.0
442.0
442.0
440.0
439.0
438.0
438.0
438.0
436.0
435.0
435.0
434.0
434.0
433.0
432.0
432.0
431.0
431.0
431.0
430.0
430.0
430.0
430.0
430.0
429.0
429.0
429.0
428.0
428.0
427.0
427.0
426.0
425.0
425.0
425.0
424.0
424.0
425.0
428.0
431.0
434.0
438.0
443.0
448.0
452.0
456.0
460.0
464.0
466.0
468.0
469.0
469.0
470.0
469.0
468.0
468.0
466.0
465.0
464.0
463.0
462.0
460.0
460.0
459.0
458.0
457.0
456.0
455.0
453.0
453.0
453.0
452.0
451.0
451.0
452.0
452.0
453.0
453.0
454.0
454.0
455.0
455.0
456.0
456.0
456.0
455.0
455.0
454.0
453.0
452.0
452.0
451.0
449.0
448.0
447.0
446.0
445.0
444.0
443.0
443.0
442.0
440.0
439.0
438.0
437.0
436.0
435.0
434.0
434.0
433.0
432.0
431.0
431.0
430.0
429.0
429.0
429.0
427.0
427.0
427.0
427.0
427.0
425.0
425.0
425.0
424.0
424.0
424.0
423.0
422.0
422.0
422.0
421.0
420.0
421.0
421.0
422.0
424.0
426.0
429.0
434.0
438.0
443.0
447.0
452.0
456.0
460.0
462.0
465.0
466.0
467.0
468.0
468.0
468.0
466.0
465.0
464.0
462.0
461.0
459.0
458.0
457.0
456.0
456.0
454.0
453.0
452.0
451.0
450.0
449.0
448.0
448.0
448.0
448.0
448.0
449.0
450.0
450.0
451.0
452.0
452.0
453.0
454.0
454.0
454.0
454.0
454.0
453.0
453.0
452.0
451.0
450.0
449.0
448.0
447.0
446.0
445.0
444.0
443.0
442.0
441.0
440.0
439.0
438.0
437.0
437.0
435.0
434.0
434.0
433.0
433.0
432.0
431.0
431.0
431.0
431.0
430.0
429.0
429.0
429.0
428.0
428.0
428.0
427.0
427.0
426.0
426.0
425.0
425.0
424.0
424.0
424.0
424.0
424.0
426.0
428.0
432.0
435.0
440.0
445.0
449.0
454.0
459.0
462.0
465.0
467.0
470.0
471.0
471.0
471.0
471.0
471.0
470.0
469.0
468.0
466.0
465.0
464.0
462.0
461.0
459.0
458.0
458.0
456.0
455.0
453.0
453.0
452.0
452.0
451.0
452.0
452.0
453.0
453.0
455.0
456.0
456.0
457.0
458.0
459.0
460.0
459.0
459.0
459.0
459.0
458.0
457.0
457.0
456.0
455.0
455.0
453.0
452.0
451.0
451.0
450.0
448.0
447.0
447.0
446.0
445.0
443.0
443.0
442.0
441.0
440.0
439.0
439.0
438.0
437.0
437.0
437.0
436.0
436.0
436.0
436.0
435.0
434.0
434.0
434.0
434.0
433.0
433.0
433.0
432.0
432.0
433.0
434.0
435.0
438.0
442.0
446.0
450.0
454.0
459.0
463.0
467.0
470.0
473.0
476.0
476.0
477.0
478.0
478.0
477.0
476.0
475.0
474.0
473.0
470.0
469.0
468.0
466.0
465.0
463.0
462.0
460.0
458.0
457.0
457.0
456.0
454.0
455.0
455.0
456.0
457.0
458.0
459.0
460.0
461.0
462.0
463.0
464.0
465.0
465.0
465.0
465.0
465.0
465.0
464.0
463.0
462.0
462.0
461.0
460.0
459.0
458.0
457.0
456.0
455.0
454.0
453.0
452.0
450.0
450.0
449.0
447.0
447.0
446.0
446.0
445.0
444.0
443.0
443.0
442.0
441.0
441.0
440.0
440.0
440.0
439.0
439.0
439.0
440.0
442.0
445.0
448.0
452.0
457.0
461.0
466.0
470.0
474.0
477.0
479.0
481.0
483.0
483.0
484.0
482.0
482.0
481.0
480.0
479.0
477.0
476.0
475.0
473.0
472.0
470.0
468.0
467.0
465.0
463.0
462.0
460.0
460.0
460.0
460.0
460.0
461.0
461.0
462.0
463.0
465.0
466.0
466.0
466.0
467.0
467.0
468.0
467.0
467.0
467.0
466.0
466.0
465.0
464.0
464.0
463.0
462.0
461.0
459.0
458.0
457.0
456.0
456.0
454.0
453.0
453.0
452.0
451.0
450.0
449.0
448.0
448.0
448.0
447.0
446.0
446.0
445.0
444.0
443.0
443.0
443.0
442.0
443.0
444.0
446.0
450.0
454.0
458.0
464.0
469.0
474.0
478.0
483.0
486.0
489.0
491.0
493.0
493.0
494.0
493.0
492.0
491.0
490.0
489.0
489.0
487.0
485.0
484.0
483.0
482.0
481.0
479.0
478.0
477.0
475.0
474.0
473.0
472.0
472.0
471.0
472.0
473.0
473.0
474.0
475.0
475.0
476.0
477.0
477.0
477.0
477.0
477.0
477.0
476.0
475.0
474.0
474.0
473.0
472.0
470.0
469.0
468.0
467.0
465.0
464.0
463.0
462.0
460.0
460.0
458.0
457.0
455.0
455.0
454.0
453.0
452.0
451.0
451.0
450.0
449.0
449.0
447.0
446.0
445.0
445.0
445.0
445.0
445.0
447.0
449.0
453.0
457.0
462.0
467.0
473.0
478.0
484.0
489.0
492.0
495.0
498.0
500.0
501.0
501.0
501.0
501.0
500.0
499.0
498.0
496.0
495.0
494.0
494.0
493.0
492.0
491.0
491.0
490.0
488.0
487.0
487.0
486.0
485.0
484.0
484.0
484.0
484.0
484.0
485.0
485.0
485.0
486.0
487.0
487.0
487.0
487.0
487.0
487.0
486.0
485.0
485.0
484.0
483.0
481.0
480.0
479.0
479.0
477.0
476.0
474.0
473.0
471.0
470.0
470.0
468.0
467.0
466.0
465.0
464.0
463.0
462.0
461.0
461.0
460.0
459.0
459.0
458.0
458.0
457.0
457.0
455.0
455.0
454.0
454.0
454.0
453.0
454.0
455.0
458.0
462.0
465.0
471.0
476.0
482.0
488.0
493.0
498.0
502.0
505.0
508.0
509.0
510.0
511.0
511.0
511.0
509.0
508.0
507.0
506.0
505.0
505.0
504.0
504.0
503.0
502.0
503.0
501.0
500.0
499.0
499.0
498.0
496.0
495.0
495.0
495.0
494.0
494.0
495.0
495.0
496.0
496.0
496.0
496.0
496.0
497.0
496.0
496.0
495.0
494.0
493.0
492.0
491.0
490.0
489.0
488.0
486.0
485.0
483.0
482.0
481.0
480.0
479.0
477.0
476.0
475.0
474.0
473.0
471.0
471.0
470.0
469.0
468.0
467.0
466.0
466.0
465.0
465.0
464.0
464.0
463.0
463.0
463.0
462.0
462.0
462.0
461.0
460.0
459.0
459.0
458.0
457.0
457.0
457.0
457.0
458.0
460.0
464.0
467.0
473.0
478.0
484.0
490.0
495.0
500.0
504.0
507.0
510.0
512.0
514.0
514.0
514.0
513.0
512.0
511.0
511.0
510.0
509.0
509.0
508.0
507.0
507.0
506.0
506.0
505.0
504.0
503.0
501.0
501.0
500.0
499.0
498.0
498.0
498.0
498.0
499.0
499.0
499.0
500.0
500.0
499.0
500.0
499.0
499.0
499.0
498.0
497.0
496.0
495.0
494.0
493.0
491.0
490.0
489.0
487.0
486.0
484.0
483.0
482.0
481.0
479.0
478.0
477.0
475.0
475.0
474.0
473.0
472.0
471.0
470.0
469.0
468.0
467.0
468.0
467.0
466.0
465.0
465.0
465.0
464.0
464.0
463.0
462.0
462.0
461.0
461.0
459.0
458.0
458.0
457.0
456.0
455.0
454.0
453.0
453.0
452.0
451.0
452.0
453.0
455.0
458.0
463.0
468.0
473.0
479.0
485.0
489.0
494.0
497.0
500.0
502.0
503.0
503.0
504.0
503.0
502.0
500.0
499.0
498.0
497.0
496.0
495.0
494.0
493.0
492.0
492.0
491.0
489.0
488.0
487.0
486.0
486.0
484.0
484.0
485.0
486.0
486.0
486.0
487.0
488.0
488.0
489.0
489.0
488.0
488.0
488.0
487.0
486.0
484.0
484.0
483.0
482.0
480.0
479.0
478.0
476.0
475.0
474.0
472.0
471.0
469.0
468.0
467.0
466.0
464.0
463.0
462.0
461.0
459.0
458.0
458.0
457.0
456.0
455.0
454.0
454.0
453.0
452.0
452.0
452.0
450.0
450.0
450.0
449.0
448.0
448.0
448.0
447.0
447.0
446.0
445.0
444.0
443.0
443.0
442.0
441.0
440.0
439.0
440.0
440.0
441.0
445.0
449.0
453.0
458.0
464.0
470.0
475.0
480.0
484.0
487.0
490.0
492.0
493.0
492.0
492.0
491.0
491.0
490.0
489.0
487.0
486.0
485.0
485.0
483.0
483.0
482.0
481.0
480.0
479.0
477.0
477.0
475.0
475.0
474.0
474.0
474.0
474.0
475.0
475.0
475.0
476.0
477.0
477.0
478.0
477.0
477.0
476.0
476.0
476.0
474.0
473.0
472.0
471.0
470.0
468.0
466.0
466.0
464.0
464.0
462.0
460.0
459.0
458.0
457.0
456.0
455.0
454.0
453.0
452.0
451.0
450.0
449.0
449.0
448.0
448.0
447.0
446.0
446.0
445.0
445.0
444.0
444.0
444.0
443.0
443.0
443.0
442.0
442.0
442.0
442.0
442.0
440.0
440.0
439.0
438.0
437.0
436.0
436.0
434.0
434.0
433.0
433.0
433.0
433.0
436.0
439.0
443.0
448.0
455.0
461.0
468.0
474.0
479.0
484.0
488.0
491.0
494.0
494.0
495.0
495.0
496.0
495.0
493.0
492.0
492.0
490.0
489.0
489.0
488.0
487.0
487.0
487.0
486.0
485.0
484.0
482.0
482.0
481.0
480.0
479.0
479.0
479.0
479.0
479.0
479.0
480.0
480.0
480.0
481.0
480.0
480.0
480.0
480.0
479.0
478.0
477.0
476.0
475.0
474.0
472.0
471.0
470.0
468.0
467.0
466.0
464.0
463.0
462.0
462.0
460.0
458.0
457.0
456.0
455.0
454.0
452.0
451.0
451.0
449.0
448.0
448.0
446.0
445.0
444.0
444.0
444.0
443.0
441.0
441.0
440.0
440.0
438.0
438.0
437.0
437.0
436.0
436.0
435.0
434.0
433.0
433.0
432.0
430.0
428.0
428.0
427.0
426.0
425.0
425.0
426.0
427.0
431.0
435.0
440.0
445.0
451.0
457.0
463.0
468.0
472.0
476.0
479.0
481.0
481.0
482.0
482.0
481.0
479.0
479.0
478.0
476.0
474.0
473.0
472.0
471.0
470.0
470.0
469.0
468.0
467.0
467.0
465.0
464.0
462.0
462.0
461.0
460.0
459.0
459.0
460.0
460.0
459.0
459.0
460.0
460.0
460.0
460.0
459.0
459.0
458.0
457.0
456.0
455.0
453.0
452.0
451.0
450.0
447.0
447.0
445.0
444.0
443.0
441.0
440.0
439.0
438.0
438.0
437.0
436.0
436.0
436.0
435.0
434.0
433.0
433.0
432.0
431.0
430.0
429.0
429.0
428.0
427.0
426.0
426.0
425.0
424.0
424.0
423.0
422.0
422.0
421.0
420.0
419.0
418.0
417.0
416.0
415.0
414.0
412.0
412.0
411.0
409.0
408.0
407.0
406.0
405.0
405.0
404.0
405.0
406.0
410.0
414.0
418.0
424.0
430.0
435.0
442.0
446.0
451.0
456.0
459.0
462.0
463.0
464.0
464.0
464.0
463.0
462.0
461.0
459.0
458.0
457.0
455.0
454.0
453.0
452.0
452.0
451.0
450.0
449.0
448.0
447.0
446.0
445.0
445.0
445.0
445.0
446.0
446.0
446.0
447.0
448.0
449.0
449.0
449.0
449.0
449.0
449.0
449.0
448.0
448.0
447.0
446.0
445.0
444.0
443.0
442.0
441.0
439.0
438.0
437.0
436.0
434.0
433.0
432.0
431.0
429.0
428.0
427.0
426.0
425.0
424.0
424.0
423.0
422.0
421.0
421.0
420.0
420.0
419.0
419.0
418.0
418.0
418.0
417.0
417.0
417.0
417.0
417.0
416.0
416.0
415.0
415.0
415.0
414.0
413.0
413.0
413.0
412.0
412.0
412.0
412.0
414.0
416.0
420.0
424.0
429.0
434.0
440.0
444.0
449.0
453.0
458.0
460.0
462.0
463.0
465.0
464.0
464.0
462.0
462.0
460.0
459.0
457.0
456.0
454.0
453.0
452.0
451.0
449.0
448.0
446.0
446.0
444.0
442.0
441.0
442.0
441.0
441.0
441.0
442.0
443.0
444.0
445.0
446.0
447.0
448.0
448.0
449.0
450.0
449.0
449.0
449.0
448.0
447.0
446.0
446.0
445.0
443.0
442.0
441.0
440.0
439.0
437.0
436.0
435.0
434.0
433.0
432.0
431.0
430.0
429.0
428.0
428.0
427.0
425.0
425.0
424.0
423.0
423.0
423.0
422.0
421.0
421.0
421.0
421.0
420.0
419.0
419.0
419.0
419.0
418.0
418.0
418.0
418.0
418.0
418.0
418.0
420.0
422.0
426.0
431.0
436.0
441.0
447.0
453.0
457.0
462.0
466.0
469.0
472.0
473.0
475.0
475.0
474.0
473.0
472.0
471.0
469.0
468.0
467.0
465.0
463.0
462.0
461.0
460.0
459.0
457.0
455.0
454.0
453.0
452.0
451.0
451.0
451.0
451.0
451.0
452.0
453.0
454.0
456.0
457.0
457.0
458.0
459.0
459.0
459.0
459.0
459.0
458.0
458.0
457.0
456.0
455.0
454.0
452.0
452.0
451.0
449.0
448.0
447.0
446.0
445.0
443.0
442.0
441.0
440.0
439.0
438.0
437.0
436.0
436.0
435.0
434.0
434.0
433.0
433.0
433.0
433.0
432.0
433.0
433.0
432.0
432.0
432.0
431.0
431.0
432.0
432.0
433.0
436.0
439.0
444.0
448.0
454.0
460.0
466.0
471.0
476.0
480.0
483.0
486.0
488.0
489.0
489.0
489.0
488.0
488.0
486.0
484.0
483.0
482.0
481.0
479.0
478.0
477.0
476.0
475.0
474.0
473.0
472.0
471.0
470.0
468.0
468.0
467.0
466.0
466.0
466.0
466.0
466.0
467.0
468.0
468.0
468.0
469.0
470.0
470.0
470.0
469.0
468.0
468.0
467.0
466.0
465.0
464.0
463.0
461.0
460.0
458.0
457.0
455.0
455.0
453.0
451.0
450.0
449.0
447.0
446.0
445.0
444.0
443.0
442.0
441.0
440.0
439.0
438.0
438.0
438.0
436.0
436.0
435.0
435.0
435.0
433.0
433.0
433.0
432.0
432.0
431.0
432.0
434.0
436.0
440.0
445.0
450.0
456.0
462.0
467.0
472.0
475.0
479.0
483.0
484.0
486.0
486.0
486.0
486.0
485.0
483.0
483.0
481.0
479.0
478.0
478.0
477.0
475.0
474.0
474.0
473.0
471.0
469.0
469.0
467.0
466.0
465.0
464.0
464.0
464.0
463.0
464.0
464.0
464.0
464.0
465.0
466.0
466.0
465.0
466.0
465.0
465.0
464.0
463.0
462.0
461.0
460.0
459.0
458.0
456.0
455.0
454.0
453.0
451.0
450.0
449.0
448.0
446.0
444.0
444.0
443.0
442.0
440.0
439.0
438.0
437.0
436.0
435.0
435.0
434.0
433.0
433.0
432.0
431.0
430.0
430.0
430.0
429.0
428.0
429.0
430.0
431.0
434.0
438.0
443.0
449.0
454.0
460.0
465.0
470.0
474.0
478.0
480.0
482.0
483.0
483.0
483.0
482.0
481.0
479.0
478.0
477.0
475.0
474.0
473.0
472.0
470.0
470.0
469.0
467.0
466.0
465.0
464.0
463.0
461.0
461.0
461.0
461.0
461.0
461.0
462.0
463.0
464.0
465.0
466.0
466.0
466.0
467.0
467.0
466.0
466.0
465.0
465.0
464.0
462.0
461.0
461.0
460.0
458.0
457.0
457.0
456.0
454.0
454.0
452.0
451.0
450.0
449.0
448.0
447.0
446.0
445.0
444.0
444.0
443.0
442.0
442.0
442.0
441.0
440.0
440.0
439.0
439.0
439.0
439.0
438.0
439.0
441.0
443.0
447.0
451.0
457.0
462.0
467.0
472.0
477.0
480.0
483.0
485.0
487.0
487.0
487.0
486.0
486.0
484.0
483.0
481.0
479.0
478.0
477.0
475.0
474.0
472.0
471.0
469.0
468.0
466.0
465.0
464.0
463.0
462.0
462.0
462.0
463.0
463.0
464.0
465.0
466.0
467.0
468.0
469.0
470.0
470.0
469.0
469.0
469.0
468.0
467.0
466.0
465.0
464.0
463.0
462.0
460.0
459.0
457.0
456.0
456.0
454.0
453.0
452.0
451.0
450.0
448.0
447.0
446.0
446.0
445.0
444.0
443.0
442.0
442.0
441.0
440.0
439.0
439.0
438.0
438.0
436.0
436.0
436.0
437.0
438.0
439.0
442.0
446.0
451.0
456.0
461.0
466.0
471.0
476.0
479.0
482.0
483.0
485.0
485.0
486.0
484.0
483.0
482.0
481.0
480.0
478.0
476.0
475.0
474.0
473.0
472.0
471.0
469.0
468.0
467.0
466.0
464.0
463.0
462.0
462.0
462.0
461.0
462.0
463.0
464.0
465.0
465.0
466.0
466.0
467.0
467.0
467.0
467.0
466.0
466.0
466.0
464.0
463.0
461.0
461.0
460.0
458.0
456.0
455.0
453.0
452.0
450.0
449.0
448.0
447.0
446.0
445.0
443.0
442.0
441.0
441.0
441.0
439.0
439.0
439.0
438.0
437.0
436.0
436.0
436.0
435.0
434.0
433.0
433.0
432.0
432.0
432.0
431.0
431.0
433.0
436.0
440.0
444.0
449.0
455.0
460.0
465.0
469.0
474.0
477.0
479.0
480.0
481.0
481.0
481.0
479.0
478.0
477.0
475.0
474.0
473.0
472.0
471.0
469.0
469.0
469.0
467.0
466.0
465.0
464.0
463.0
462.0
461.0
461.0
460.0
460.0
460.0
461.0
461.0
461.0
462.0
462.0
462.0
462.0
462.0
462.0
462.0
461.0
460.0
460.0
458.0
456.0
456.0
455.0
454.0
452.0
451.0
450.0
448.0
447.0
446.0
445.0
444.0
442.0
441.0
439.0
439.0
437.0
437.0
436.0
435.0
434.0
434.0
433.0
432.0
431.0
431.0
431.0
430.0
429.0
429.0
428.0
428.0
428.0
427.0
427.0
427.0
427.0
426.0
426.0
425.0
425.0
425.0
425.0
424.0
425.0
426.0
429.0
433.0
436.0
442.0
448.0
454.0
459.0
464.0
468.0
472.0
474.0
476.0
477.0
477.0
477.0
477.0
476.0
474.0
473.0
473.0
472.0
472.0
470.0
470.0
469.0
469.0
469.0
468.0
468.0
467.0
466.0
465.0
464.0
463.0
463.0
463.0
464.0
464.0
464.0
465.0
466.0
467.0
467.0
467.0
468.0
468.0
467.0
466.0
466.0
465.0
464.0
463.0
462.0
461.0
459.0
459.0
457.0
455.0
454.0
452.0
450.0
451.0
451.0
448.0
445.0
443.0
442.0
440.0
438.0
436.0
435.0
434.0
433.0
432.0
431.0
431.0
430.0
429.0
428.0
428.0
427.0
426.0
426.0
425.0
425.0
424.0
424.0
423.0
422.0
421.0
421.0
421.0
420.0
418.0
418.0
417.0
415.0
415.0
414.0
413.0
412.0
412.0
411.0
412.0
414.0
417.0
422.0
427.0
432.0
438.0
444.0
450.0
454.0
457.0
460.0
463.0
464.0
464.0
464.0
464.0
463.0
462.0
461.0
460.0
458.0
458.0
456.0
456.0
455.0
455.0
454.0
453.0
453.0
451.0
450.0
450.0
448.0
447.0
447.0
448.0
448.0
448.0
449.0
450.0
451.0
451.0
452.0
453.0
453.0
453.0
453.0
453.0
452.0
452.0
451.0
451.0
449.0
448.0
447.0
446.0
445.0
443.0
442.0
441.0
440.0
438.0
436.0
435.0
434.0
432.0
431.0
431.0
430.0
429.0
428.0
428.0
426.0
426.0
425.0
424.0
424.0
422.0
422.0
422.0
421.0
420.0
419.0
419.0
419.0
419.0
418.0
418.0
418.0
418.0
418.0
418.0
417.0
417.0
416.0
416.0
415.0
414.0
414.0
414.0
414.0
415.0
416.0
419.0
424.0
428.0
432.0
439.0
444.0
449.0
453.0
456.0
459.0
461.0
462.0
463.0
463.0
462.0
461.0
460.0
459.0
457.0
455.0
455.0
454.0
453.0
451.0
450.0
449.0
449.0
447.0
447.0
445.0
444.0
443.0
443.0
443.0
442.0
441.0
442.0
443.0
443.0
443.0
443.0
444.0
444.0
445.0
445.0
445.0
445.0
444.0
444.0
443.0
442.0
440.0
440.0
439.0
437.0
436.0
435.0
434.0
432.0
431.0
430.0
429.0
428.0
426.0
425.0
425.0
424.0
423.0
422.0
422.0
421.0
420.0
419.0
418.0
418.0
417.0
417.0
417.0
416.0
415.0
415.0
414.0
414.0
413.0
413.0
413.0
412.0
412.0
411.0
411.0
410.0
410.0
409.0
408.0
407.0
407.0
407.0
406.0
407.0
408.0
411.0
414.0
419.0
423.0
429.0
434.0
440.0
444.0
448.0
451.0
454.0
455.0
456.0
456.0
455.0
455.0
453.0
451.0
450.0
448.0
446.0
445.0
443.0
441.0
440.0
439.0
438.0
436.0
435.0
434.0
433.0
431.0
430.0
430.0
430.0
429.0
429.0
429.0
430.0
430.0
432.0
432.0
432.0
432.0
432.0
432.0
431.0
431.0
430.0
429.0
428.0
426.0
425.0
424.0
423.0
421.0
420.0
419.0
417.0
416.0
415.0
413.0
412.0
411.0
410.0
409.0
407.0
406.0
405.0
404.0
403.0
402.0
402.0
401.0
400.0
399.0
399.0
398.0
397.0
397.0
397.0
396.0
396.0
396.0
396.0
395.0
395.0
395.0
395.0
394.0
394.0
393.0
393.0
392.0
390.0
390.0
390.0
390.0
390.0
392.0
395.0
397.0
402.0
406.0
412.0
416.0
420.0
423.0
427.0
429.0
431.0
431.0
432.0
432.0
431.0
429.0
428.0
427.0
425.0
424.0
423.0
421.0
419.0
418.0
417.0
416.0
414.0
413.0
412.0
411.0
409.0
408.0
407.0
407.0
406.0
406.0
407.0
407.0
407.0
408.0
409.0
409.0
409.0
410.0
410.0
411.0
410.0
409.0
409.0
408.0
408.0
406.0
406.0
405.0
404.0
403.0
402.0
401.0
400.0
398.0
398.0
397.0
395.0
395.0
394.0
393.0
392.0
390.0
390.0
389.0
389.0
388.0
387.0
386.0
386.0
385.0
386.0
385.0
385.0
384.0
384.0
384.0
383.0
383.0
383.0
383.0
383.0
382.0
382.0
381.0
381.0
381.0
381.0
381.0
382.0
383.0
386.0
389.0
393.0
397.0
401.0
405.0
408.0
411.0
414.0
416.0
417.0
417.0
418.0
419.0
418.0
417.0
416.0
415.0
414.0
412.0
411.0
410.0
409.0
408.0
407.0
406.0
404.0
403.0
403.0
402.0
401.0
400.0
400.0
401.0
401.0
401.0
402.0
403.0
403.0
404.0
405.0
405.0
406.0
406.0
407.0
407.0
407.0
406.0
406.0
405.0
405.0
403.0
403.0
403.0
402.0
401.0
400.0
399.0
398.0
397.0
397.0
396.0
395.0
394.0
393.0
393.0
392.0
391.0
390.0
390.0
389.0
388.0
388.0
387.0
386.0
386.0
386.0
386.0
386.0
385.0
385.0
384.0
384.0
383.0
383.0
383.0
382.0
382.0
382.0
382.0
383.0
383.0
386.0
389.0
393.0
397.0
401.0
405.0
410.0
413.0
417.0
419.0
421.0
423.0
424.0
424.0
424.0
423.0
423.0
423.0
422.0
420.0
420.0
419.0
418.0
417.0
416.0
415.0
414.0
412.0
412.0
409.0
408.0
407.0
406.0
405.0
404.0
403.0
404.0
403.0
404.0
404.0
406.0
407.0
408.0
410.0
410.0
411.0
411.0
412.0
412.0
411.0
411.0
411.0
410.0
409.0
408.0
407.0
407.0
407.0
406.0
405.0
405.0
405.0
405.0
404.0
405.0
404.0
404.0
404.0
405.0
405.0
404.0
405.0
405.0
405.0
404.0
404.0
404.0
404.0
404.0
404.0
404.0
404.0
404.0
404.0
403.0
402.0
402.0
402.0
402.0
401.0
402.0
402.0
405.0
407.0
411.0
415.0
419.0
423.0
427.0
430.0
432.0
434.0
435.0
436.0
437.0
435.0
435.0
434.0
433.0
432.0
430.0
429.0
428.0
427.0
426.0
425.0
425.0
424.0
423.0
422.0
421.0
421.0
420.0
419.0
419.0
419.0
418.0
419.0
420.0
421.0
421.0
421.0
423.0
423.0
424.0
424.0
425.0
425.0
425.0
424.0
423.0
423.0
422.0
421.0
421.0
420.0
419.0
418.0
418.0
417.0
416.0
415.0
415.0
414.0
413.0
412.0
412.0
411.0
411.0
409.0
410.0
409.0
408.0
407.0
407.0
407.0
406.0
405.0
405.0
405.0
405.0
404.0
404.0
403.0
403.0
402.0
402.0
402.0
401.0
400.0
400.0
401.0
401.0
403.0
406.0
410.0
413.0
417.0
421.0
425.0
428.0
431.0
433.0
434.0
435.0
435.0
435.0
435.0
434.0
433.0
433.0
432.0
431.0
429.0
429.0
429.0
428.0
428.0
427.0
427.0
427.0
426.0
426.0
425.0
424.0
423.0
424.0
424.0
424.0
423.0
424.0
426.0
427.0
426.0
428.0
429.0
429.0
429.0
429.0
430.0
430.0
429.0
429.0
428.0
428.0
427.0
427.0
427.0
425.0
425.0
425.0
425.0
424.0
423.0
423.0
422.0
422.0
421.0
420.0
420.0
420.0
418.0
418.0
418.0
417.0
416.0
416.0
416.0
416.0
416.0
416.0
415.0
415.0
415.0
415.0
415.0
414.0
414.0
414.0
414.0
414.0
414.0
414.0
415.0
417.0
418.0
421.0
424.0
428.0
431.0
435.0
439.0
443.0
445.0
447.0
449.0
450.0
451.0
452.0
452.0
451.0
450.0
449.0
449.0
448.0
446.0
446.0
446.0
445.0
445.0
444.0
443.0
443.0
442.0
442.0
441.0
441.0
441.0
441.0
441.0
441.0
442.0
443.0
444.0
445.0
445.0
446.0
446.0
447.0
447.0
447.0
447.0
447.0
447.0
447.0
446.0
445.0
445.0
445.0
444.0
443.0
442.0
441.0
440.0
440.0
439.0
438.0
437.0
437.0
436.0
436.0
434.0
434.0
434.0
434.0
433.0
432.0
431.0
431.0
431.0
430.0
430.0
430.0
429.0
429.0
429.0
429.0
428.0
427.0
427.0
426.0
426.0
425.0
425.0
425.0
425.0
426.0
428.0
431.0
435.0
439.0
443.0
448.0
451.0
454.0
457.0
460.0
462.0
463.0
463.0
463.0
463.0
462.0
461.0
461.0
459.0
459.0
458.0
457.0
457.0
456.0
455.0
456.0
456.0
455.0
454.0
454.0
453.0
453.0
453.0
454.0
454.0
454.0
454.0
455.0
456.0
456.0
456.0
458.0
458.0
458.0
458.0
458.0
458.0
458.0
457.0
457.0
456.0
455.0
454.0
454.0
453.0
452.0
450.0
450.0
449.0
449.0
447.0
447.0
446.0
446.0
445.0
444.0
443.0
442.0
442.0
441.0
441.0
440.0
439.0
439.0
440.0
439.0
438.0
439.0
439.0
438.0
438.0
438.0
438.0
438.0
437.0
437.0
437.0
436.0
435.0
435.0
435.0
435.0
433.0
434.0
435.0
436.0
439.0
443.0
447.0
451.0
455.0
460.0
464.0
467.0
470.0
473.0
474.0
475.0
475.0
475.0
475.0
474.0
473.0
472.0
471.0
469.0
468.0
468.0
467.0
466.0
465.0
465.0
465.0
464.0
462.0
461.0
461.0
461.0
460.0
461.0
461.0
461.0
461.0
462.0
462.0
462.0
463.0
463.0
464.0
464.0
463.0
463.0
462.0
461.0
461.0
460.0
459.0
458.0
457.0
456.0
455.0
453.0
452.0
451.0
450.0
449.0
447.0
446.0
445.0
444.0
443.0
442.0
441.0
440.0
439.0
439.0
438.0
437.0
436.0
437.0
436.0
435.0
435.0
435.0
434.0
434.0
433.0
433.0
433.0
433.0
433.0
432.0
432.0
432.0
431.0
431.0
431.0
430.0
430.0
429.0
429.0
428.0
428.0
429.0
430.0
432.0
435.0
439.0
443.0
448.0
453.0
458.0
462.0
466.0
469.0
471.0
473.0
474.0
474.0
475.0
474.0
474.0
472.0
471.0
470.0
468.0
467.0
467.0
465.0
464.0
464.0
464.0
463.0
462.0
461.0
461.0
460.0
460.0
459.0
459.0
459.0
459.0
460.0
461.0
461.0
462.0
462.0
463.0
463.0
463.0
464.0
464.0
463.0
463.0
462.0
461.0
460.0
460.0
459.0
457.0
457.0
455.0
454.0
453.0
453.0
451.0
450.0
450.0
448.0
447.0
446.0
445.0
444.0
443.0
443.0
442.0
441.0
440.0
440.0
440.0
439.0
437.0
437.0
438.0
438.0
438.0
438.0
437.0
437.0
437.0
436.0
436.0
435.0
435.0
434.0
434.0
433.0
432.0
432.0
432.0
432.0
431.0
431.0
433.0
436.0
439.0
443.0
448.0
452.0
456.0
460.0
464.0
467.0
469.0
470.0
472.0
472.0
472.0
471.0
470.0
469.0
468.0
467.0
466.0
464.0
462.0
461.0
461.0
459.0
457.0
456.0
455.0
453.0
452.0
451.0
451.0
451.0
450.0
451.0
451.0
452.0
452.0
453.0
455.0
455.0
456.0
456.0
457.0
458.0
457.0
456.0
456.0
455.0
455.0
453.0
453.0
453.0
451.0
450.0
449.0
448.0
447.0
445.0
445.0
444.0
443.0
441.0
441.0
440.0
439.0
437.0
437.0
436.0
436.0
434.0
434.0
434.0
433.0
432.0
432.0
432.0
431.0
431.0
431.0
431.0
430.0
430.0
430.0
430.0
429.0
428.0
428.0
428.0
427.0
426.0
426.0
427.0
428.0
429.0
433.0
437.0
442.0
446.0
452.0
457.0
461.0
464.0
468.0
470.0
472.0
472.0
473.0
473.0
472.0
471.0
469.0
468.0
466.0
465.0
464.0
462.0
462.0
460.0
459.0
458.0
456.0
455.0
454.0
453.0
453.0
451.0
451.0
451.0
450.0
451.0
451.0
452.0
453.0
454.0
454.0
455.0
456.0
456.0
456.0
457.0
456.0
456.0
455.0
454.0
454.0
453.0
452.0
451.0
450.0
448.0
448.0
446.0
445.0
444.0
443.0
442.0
441.0
440.0
439.0
438.0
437.0
435.0
435.0
434.0
433.0
433.0
431.0
431.0
430.0
430.0
430.0
429.0
428.0
428.0
428.0
427.0
427.0
426.0
427.0
426.0
426.0
426.0
425.0
424.0
424.0
424.0
424.0
423.0
423.0
424.0
427.0
430.0
435.0
440.0
446.0
452.0
457.0
462.0
466.0
470.0
473.0
475.0
476.0
477.0
477.0
476.0
476.0
474.0
472.0
471.0
470.0
468.0
467.0
465.0
465.0
464.0
463.0
462.0
462.0
461.0
459.0
458.0
458.0
456.0
456.0
456.0
456.0
456.0
456.0
457.0
458.0
458.0
459.0
459.0
460.0
461.0
461.0
460.0
460.0
460.0
459.0
458.0
458.0
456.0
455.0
454.0
454.0
452.0
451.0
450.0
449.0
448.0
446.0
445.0
444.0
443.0
442.0
441.0
440.0
439.0
438.0
437.0
436.0
435.0
434.0
434.0
433.0
433.0
432.0
432.0
431.0
431.0
430.0
429.0
429.0
429.0
428.0
428.0
427.0
427.0
428.0
430.0
434.0
437.0
442.0
448.0
454.0
459.0
464.0
468.0
473.0
476.0
479.0
480.0
481.0
481.0
481.0
479.0
479.0
477.0
476.0
474.0
473.0
471.0
470.0
469.0
468.0
467.0
466.0
464.0
464.0
462.0
461.0
459.0
459.0
458.0
458.0
457.0
458.0
458.0
458.0
459.0
460.0
461.0
461.0
461.0
462.0
462.0
462.0
461.0
461.0
460.0
460.0
458.0
458.0
456.0
455.0
453.0
453.0
452.0
451.0
449.0
448.0
447.0
446.0
445.0
444.0
442.0
441.0
440.0
439.0
438.0
437.0
436.0
435.0
435.0
434.0
432.0
432.0
431.0
430.0
429.0
428.0
428.0
428.0
427.0
427.0
427.0
429.0
431.0
435.0
440.0
445.0
451.0
457.0
463.0
468.0
471.0
475.0
478.0
480.0
481.0
481.0
480.0
479.0
478.0
477.0
474.0
472.0
471.0
469.0
467.0
465.0
464.0
462.0
461.0
460.0
458.0
457.0
455.0
453.0
452.0
452.0
451.0
450.0
450.0
450.0
451.0
451.0
451.0
452.0
453.0
454.0
454.0
454.0
454.0
454.0
453.0
453.0
452.0
452.0
451.0
450.0
449.0
447.0
446.0
445.0
444.0
443.0
441.0
440.0
439.0
438.0
436.0
435.0
434.0
433.0
432.0
431.0
429.0
429.0
428.0
428.0
427.0
426.0
425.0
424.0
424.0
423.0
422.0
422.0
421.0
421.0
421.0
423.0
426.0
430.0
435.0
440.0
446.0
451.0
457.0
462.0
467.0
471.0
473.0
475.0
476.0
476.0
475.0
475.0
473.0
471.0
470.0
469.0
467.0
464.0
463.0
462.0
460.0
458.0
457.0
455.0
454.0
452.0
451.0
450.0
448.0
448.0
448.0
448.0
449.0
449.0
449.0
451.0
452.0
452.0
452.0
454.0
454.0
454.0
454.0
454.0
453.0
453.0
452.0
451.0
450.0
448.0
447.0
447.0
445.0
444.0
443.0
442.0
441.0
439.0
438.0
437.0
436.0
434.0
434.0
433.0
432.0
431.0
430.0
429.0
428.0
428.0
426.0
426.0
425.0
424.0
423.0
423.0
423.0
422.0
423.0
425.0
428.0
431.0
436.0
442.0
448.0
453.0
458.0
464.0
468.0
471.0
473.0
474.0
475.0
475.0
474.0
473.0
472.0
471.0
469.0
467.0
465.0
463.0
461.0
460.0
459.0
457.0
454.0
453.0
451.0
449.0
448.0
447.0
447.0
447.0
447.0
448.0
448.0
449.0
450.0
452.0
453.0
454.0
454.0
455.0
456.0
456.0
455.0
455.0
455.0
454.0
453.0
453.0
451.0
450.0
449.0
448.0
448.0
446.0
444.0
444.0
443.0
442.0
440.0
440.0
439.0
438.0
437.0
436.0
435.0
434.0
434.0
433.0
433.0
432.0
431.0
430.0
430.0
429.0
428.0
428.0
428.0
429.0
429.0
430.0
433.0
437.0
442.0
448.0
454.0
459.0
465.0
470.0
475.0
478.0
480.0
483.0
483.0
484.0
483.0
482.0
481.0
479.0
478.0
476.0
474.0
473.0
471.0
469.0
468.0
466.0
465.0
463.0
462.0
460.0
459.0
457.0
457.0
457.0
456.0
457.0
457.0
458.0
459.0
460.0
461.0
462.0
462.0
463.0
463.0
463.0
463.0
462.0
462.0
461.0
460.0
459.0
458.0
457.0
456.0
455.0
453.0
452.0
451.0
450.0
448.0
447.0
446.0
445.0
444.0
444.0
442.0
442.0
441.0
440.0
440.0
439.0
438.0
438.0
437.0
437.0
437.0
436.0
435.0
435.0
434.0
434.0
433.0
433.0
432.0
433.0
434.0
436.0
439.0
444.0
449.0
456.0
462.0
468.0
475.0
480.0
484.0
488.0
490.0
492.0
493.0
493.0
492.0
491.0
490.0
488.0
487.0
485.0
483.0
482.0
481.0
481.0
479.0
478.0
478.0
477.0
475.0
474.0
473.0
472.0
472.0
472.0
471.0
471.0
472.0
472.0
473.0
473.0
474.0
474.0
475.0
476.0
476.0
475.0
475.0
475.0
474.0
473.0
472.0
471.0
470.0
469.0
467.0
466.0
464.0
463.0
461.0
461.0
459.0
457.0
456.0
455.0
454.0
452.0
450.0
450.0
449.0
448.0
447.0
446.0
446.0
445.0
444.0
444.0
443.0
443.0
443.0
443.0
442.0
441.0
440.0
441.0
440.0
439.0
438.0
438.0
438.0
437.0
437.0
439.0
442.0
445.0
450.0
456.0
462.0
468.0
475.0
481.0
486.0
490.0
492.0
495.0
497.0
497.0
496.0
495.0
495.0
493.0
491.0
490.0
488.0
486.0
484.0
484.0
483.0
482.0
481.0
480.0
479.0
478.0
476.0
475.0
474.0
473.0
472.0
472.0
471.0
471.0
471.0
472.0
473.0
473.0
473.0
474.0
474.0
474.0
473.0
473.0
473.0
471.0
470.0
470.0
468.0
466.0
465.0
464.0
463.0
461.0
459.0
458.0
457.0
456.0
454.0
452.0
452.0
451.0
449.0
448.0
447.0
446.0
444.0
444.0
443.0
442.0
441.0
440.0
440.0
439.0
438.0
438.0
438.0
437.0
437.0
436.0
436.0
435.0
435.0
435.0
434.0
433.0
432.0
432.0
432.0
430.0
429.0
430.0
430.0
431.0
432.0
436.0
441.0
447.0
453.0
460.0
466.0
472.0
477.0
482.0
486.0
487.0
489.0
490.0
491.0
490.0
488.0
487.0
486.0
484.0
483.0
481.0
480.0
479.0
478.0
477.0
476.0
476.0
474.0
473.0
472.0
471.0
469.0
469.0
468.0
468.0
468.0
467.0
468.0
468.0
469.0
470.0
470.0
470.0
470.0
471.0
471.0
471.0
470.0
469.0
468.0
468.0
466.0
465.0
464.0
463.0
461.0
460.0
458.0
457.0
456.0
455.0
454.0
452.0
451.0
450.0
449.0
448.0
447.0
446.0
445.0
444.0
444.0
443.0
442.0
441.0
440.0
441.0
439.0
439.0
439.0
439.0
438.0
437.0
437.0
437.0
437.0
436.0
436.0
436.0
435.0
435.0
434.0
433.0
433.0
432.0
432.0
431.0
431.0
430.0
429.0
429.0
429.0
430.0
431.0
435.0
439.0
444.0
450.0
456.0
463.0
469.0
474.0
479.0
482.0
485.0
487.0
488.0
489.0
488.0
487.0
486.0
484.0
482.0
481.0
479.0
478.0
476.0
475.0
474.0
472.0
470.0
469.0
468.0
467.0
465.0
464.0
465.0
465.0
465.0
464.0
466.0
467.0
467.0
469.0
469.0
470.0
471.0
471.0
472.0
472.0
471.0
471.0
471.0
470.0
468.0
467.0
467.0
466.0
465.0
463.0
462.0
460.0
459.0
457.0
457.0
455.0
454.0
452.0
451.0
450.0
449.0
448.0
447.0
446.0
446.0
445.0
444.0
444.0
443.0
442.0
443.0
442.0
441.0
441.0
441.0
441.0
440.0
439.0
439.0
439.0
438.0
438.0
438.0
437.0
436.0
435.0
435.0
435.0
434.0
433.0
434.0
435.0
437.0
440.0
444.0
450.0
455.0
461.0
468.0
473.0
478.0
482.0
487.0
489.0
491.0
491.0
491.0
491.0
490.0
488.0
487.0
486.0
484.0
482.0
480.0
479.0
477.0
476.0
474.0
474.0
472.0
469.0
468.0
467.0
466.0
465.0
465.0
465.0
465.0
466.0
467.0
467.0
468.0
469.0
470.0
471.0
472.0
471.0
472.0
472.0
471.0
471.0
470.0
469.0
468.0
467.0
466.0
465.0
463.0
462.0
461.0
460.0
459.0
456.0
455.0
454.0
453.0
451.0
451.0
450.0
449.0
448.0
447.0
446.0
445.0
444.0
443.0
443.0
442.0
441.0
440.0
440.0
440.0
439.0
439.0
439.0
439.0
438.0
438.0
437.0
437.0
436.0
436.0
435.0
434.0
433.0
433.0
433.0
433.0
434.0
438.0
442.0
448.0
454.0
460.0
467.0
474.0
479.0
485.0
489.0
493.0
495.0
497.0
498.0
497.0
497.0
496.0
495.0
494.0
491.0
489.0
488.0
486.0
485.0
483.0
482.0
481.0
479.0
478.0
476.0
475.0
474.0
473.0
472.0
471.0
470.0
470.0
470.0
470.0
470.0
471.0
472.0
473.0
473.0
473.0
474.0
474.0
474.0
474.0
473.0
472.0
471.0
471.0
469.0
468.0
467.0
465.0
464.0
463.0
461.0
460.0
459.0
458.0
456.0
455.0
454.0
453.0
452.0
451.0
450.0
449.0
447.0
447.0
445.0
444.0
443.0
443.0
442.0
441.0
440.0
440.0
440.0
439.0
438.0
438.0
437.0
437.0
436.0
437.0
436.0
435.0
434.0
434.0
433.0
433.0
432.0
433.0
433.0
436.0
439.0
443.0
449.0
455.0
462.0
470.0
475.0
481.0
486.0
491.0
494.0
496.0
497.0
499.0
499.0
498.0
497.0
495.0
493.0
492.0
490.0
489.0
487.0
486.0
484.0
484.0
483.0
481.0
480.0
480.0
478.0
477.0
476.0
475.0
475.0
474.0
474.0
475.0
475.0
475.0
475.0
477.0
477.0
478.0
477.0
478.0
478.0
477.0
476.0
476.0
475.0
474.0
472.0
472.0
470.0
468.0
466.0
466.0
464.0
462.0
460.0
459.0
458.0
456.0
455.0
453.0
452.0
450.0
449.0
448.0
447.0
445.0
444.0
443.0
443.0
442.0
440.0
440.0
439.0
438.0
437.0
437.0
436.0
436.0
435.0
435.0
433.0
433.0
432.0
432.0
432.0
431.0
431.0
432.0
434.0
436.0
439.0
445.0
451.0
457.0
463.0
470.0
476.0
481.0
485.0
489.0
492.0
493.0
493.0
494.0
494.0
493.0
490.0
490.0
488.0
486.0
484.0
483.0
481.0
480.0
479.0
478.0
477.0
475.0
473.0
472.0
471.0
469.0
468.0
468.0
468.0
468.0
468.0
468.0
469.0
470.0
470.0
471.0
472.0
472.0
472.0
473.0
473.0
473.0
471.0
470.0
470.0
469.0
468.0
467.0
466.0
465.0
463.0
462.0
461.0
459.0
457.0
457.0
455.0
454.0
452.0
452.0
450.0
450.0
448.0
447.0
446.0
446.0
444.0
444.0
443.0
442.0
442.0
441.0
440.0
439.0
438.0
438.0
438.0
437.0
437.0
436.0
436.0
438.0
440.0
442.0
446.0
451.0
456.0
462.0
468.0
473.0
477.0
481.0
485.0
487.0
489.0
490.0
490.0
490.0
489.0
488.0
486.0
484.0
482.0
480.0
478.0
476.0
474.0
472.0
470.0
468.0
466.0
464.0
462.0
461.0
460.0
460.0
459.0
459.0
460.0
461.0
462.0
463.0
464.0
465.0
466.0
466.0
467.0
467.0
467.0
467.0
466.0
466.0
464.0
463.0
462.0
462.0
460.0
459.0
457.0
456.0
455.0
454.0
452.0
452.0
450.0
449.0
448.0
447.0
445.0
444.0
443.0
443.0
442.0
440.0
439.0
439.0
439.0
438.0
437.0
436.0
435.0
435.0
434.0
433.0
433.0
432.0
432.0
433.0
433.0
435.0
438.0
443.0
448.0
453.0
459.0
466.0
471.0
476.0
480.0
484.0
487.0
489.0
490.0
490.0
490.0
489.0
487.0
486.0
484.0
481.0
479.0
478.0
477.0
475.0
472.0
472.0
470.0
468.0
466.0
465.0
463.0
462.0
461.0
461.0
461.0
461.0
461.0
462.0
463.0
463.0
464.0
466.0
466.0
466.0
466.0
467.0
467.0
466.0
465.0
465.0
464.0
463.0
462.0
461.0
460.0
458.0
457.0
456.0
454.0
453.0
451.0
450.0
449.0
448.0
446.0
445.0
445.0
443.0
442.0
441.0
440.0
440.0
438.0
438.0
437.0
436.0
435.0
435.0
434.0
433.0
432.0
431.0
431.0
431.0
430.0
430.0
432.0
435.0
438.0
443.0
449.0
455.0
461.0
467.0
472.0
477.0
481.0
485.0
487.0
489.0
488.0
489.0
489.0
488.0
485.0
484.0
483.0
481.0
479.0
478.0
477.0
475.0
473.0
473.0
471.0
470.0
468.0
466.0
465.0
464.0
463.0
463.0
462.0
462.0
462.0
463.0
463.0
464.0
464.0
465.0
465.0
466.0
466.0
466.0
466.0
465.0
464.0
464.0
463.0
461.0
460.0
459.0
458.0
456.0
455.0
453.0
452.0
451.0
449.0
448.0
447.0
446.0
444.0
443.0
441.0
441.0
439.0
439.0
438.0
436.0
435.0
435.0
435.0
434.0
433.0
432.0
432.0
431.0
430.0
430.0
428.0
428.0
427.0
427.0
427.0
428.0
429.0
431.0
435.0
440.0
446.0
452.0
458.0
464.0
469.0
474.0
477.0
480.0
482.0
484.0
484.0
484.0
483.0
482.0
481.0
479.0
477.0
476.0
475.0
474.0
472.0
471.0
470.0
468.0
467.0
466.0
465.0
463.0
462.0
460.0
460.0
459.0
458.0
458.0
458.0
459.0
459.0
460.0
460.0
460.0
461.0
461.0
461.0
461.0
461.0
460.0
460.0
459.0
458.0
457.0
456.0
454.0
453.0
452.0
450.0
449.0
447.0
447.0
445.0
443.0
442.0
442.0
440.0
439.0
437.0
437.0
436.0
435.0
434.0
434.0
433.0
432.0
432.0
431.0
431.0
429.0
429.0
429.0
428.0
427.0
426.0
426.0
425.0
424.0
424.0
424.0
424.0
425.0
427.0
431.0
434.0
439.0
445.0
451.0
457.0
461.0
466.0
471.0
474.0
476.0
477.0
478.0
478.0
477.0
477.0
475.0
474.0
472.0
470.0
469.0
467.0
465.0
463.0
462.0
461.0
460.0
457.0
456.0
455.0
454.0
452.0
452.0
451.0
451.0
451.0
453.0
453.0
453.0
454.0
455.0
456.0
456.0
457.0
457.0
457.0
457.0
456.0
456.0
455.0
454.0
453.0
453.0
451.0
449.0
448.0
447.0
446.0
445.0
443.0
443.0
441.0
440.0
439.0
437.0
437.0
435.0
434.0
433.0
432.0
431.0
430.0
431.0
430.0
429.0
428.0
428.0
428.0
427.0
427.0
427.0
426.0
425.0
424.0
424.0
424.0
423.0
423.0
423.0
424.0
426.0
429.0
433.0
438.0
444.0
450.0
456.0
461.0
466.0
470.0
473.0
476.0
477.0
477.0
477.0
477.0
476.0
474.0
473.0
471.0
469.0
467.0
466.0
465.0
463.0
461.0
460.0
459.0
457.0
455.0
454.0
453.0
451.0
450.0
451.0
450.0
450.0
450.0
452.0
452.0
454.0
454.0
455.0
456.0
457.0
457.0
457.0
457.0
457.0
456.0
455.0
455.0
453.0
452.0
452.0
451.0
449.0
447.0
446.0
445.0
444.0
443.0
442.0
440.0
439.0
438.0
436.0
435.0
434.0
432.0
432.0
431.0
430.0
430.0
429.0
428.0
428.0
427.0
427.0
427.0
426.0
425.0
424.0
424.0
423.0
421.0
421.0
421.0
421.0
421.0
421.0
423.0
427.0
431.0
437.0
442.0
448.0
454.0
459.0
465.0
469.0
472.0
475.0
476.0
477.0
477.0
476.0
476.0
474.0
472.0
471.0
469.0
467.0
466.0
465.0
463.0
462.0
460.0
459.0
458.0
456.0
455.0
453.0
451.0
450.0
449.0
449.0
448.0
448.0
449.0
449.0
450.0
451.0
451.0
452.0
452.0
452.0
453.0
452.0
452.0
451.0
451.0
450.0
448.0
447.0
446.0
445.0
443.0
442.0
440.0
438.0
437.0
436.0
435.0
433.0
431.0
431.0
429.0
429.0
427.0
426.0
425.0
424.0
423.0
421.0
421.0
421.0
420.0
419.0
418.0
417.0
417.0
416.0
416.0
416.0
415.0
415.0
414.0
414.0
413.0
412.0
411.0
412.0
412.0
413.0
416.0
420.0
425.0
431.0
438.0
444.0
450.0
456.0
461.0
465.0
468.0
470.0
471.0
472.0
473.0
472.0
471.0
470.0
467.0
466.0
464.0
464.0
462.0
460.0
458.0
458.0
456.0
455.0
453.0
452.0
450.0
448.0
447.0
447.0
446.0
444.0
444.0
445.0
445.0
445.0
445.0
446.0
446.0
447.0
447.0
448.0
448.0
447.0
447.0
446.0
446.0
445.0
443.0
443.0
442.0
440.0
439.0
438.0
436.0
434.0
432.0
432.0
431.0
429.0
427.0
426.0
425.0
423.0
422.0
421.0
420.0
419.0
418.0
418.0
417.0
416.0
415.0
415.0
414.0
414.0
413.0
413.0
413.0
412.0
411.0
411.0
410.0
410.0
409.0
409.0
409.0
408.0
408.0
410.0
412.0
416.0
420.0
426.0
432.0
439.0
444.0
450.0
455.0
460.0
462.0
465.0
466.0
467.0
466.0
466.0
465.0
464.0
461.0
460.0
458.0
455.0
453.0
451.0
450.0
448.0
446.0
444.0
442.0
439.0
437.0
436.0
435.0
434.0
433.0
433.0
433.0
433.0
434.0
436.0
436.0
437.0
438.0
439.0
440.0
440.0
440.0
441.0
441.0
440.0
439.0
438.0
438.0
437.0
435.0
435.0
433.0
432.0
430.0
430.0
429.0
427.0
425.0
425.0
423.0
422.0
421.0
420.0
419.0
418.0
417.0
416.0
416.0
415.0
414.0
413.0
413.0
412.0
411.0
411.0
411.0
410.0
409.0
408.0
408.0
408.0
407.0
407.0
408.0
410.0
412.0
416.0
420.0
426.0
432.0
439.0
445.0
450.0
455.0
460.0
463.0
465.0
466.0
467.0
467.0
467.0
465.0
463.0
461.0
460.0
458.0
456.0
455.0
453.0
451.0
449.0
448.0
446.0
443.0
441.0
440.0
439.0
437.0
436.0
435.0
434.0
435.0
436.0
436.0
437.0
438.0
439.0
440.0
441.0
442.0
442.0
442.0
442.0
442.0
442.0
440.0
439.0
438.0
437.0
436.0
435.0
433.0
432.0
431.0
429.0
428.0
427.0
425.0
424.0
422.0
422.0
420.0
419.0
417.0
417.0
415.0
415.0
414.0
412.0
411.0
411.0
410.0
410.0
409.0
408.0
407.0
407.0
406.0
406.0
404.0
405.0
404.0
404.0
405.0
407.0
410.0
415.0
421.0
428.0
434.0
441.0
447.0
452.0
457.0
461.0
464.0
466.0
467.0
468.0
468.0
467.0
465.0
464.0
462.0
461.0
459.0
456.0
455.0
453.0
452.0
450.0
448.0
447.0
445.0
443.0
442.0
440.0
438.0
437.0
437.0
437.0
437.0
437.0
437.0
438.0
438.0
439.0
440.0
441.0
441.0
441.0
442.0
442.0
442.0
441.0
440.0
440.0
438.0
437.0
435.0
434.0
433.0
431.0
430.0
429.0
427.0
426.0
424.0
423.0
422.0
420.0
418.0
418.0
417.0
415.0
414.0
413.0
412.0
411.0
410.0
410.0
409.0
408.0
407.0
406.0
406.0
406.0
404.0
404.0
403.0
402.0
402.0
402.0
402.0
404.0
407.0
412.0
418.0
425.0
431.0
438.0
445.0
451.0
456.0
461.0
465.0
467.0
468.0
470.0
470.0
469.0
467.0
466.0
464.0
462.0
460.0
459.0
457.0
455.0
454.0
453.0
451.0
449.0
448.0
447.0
445.0
443.0
441.0
440.0
439.0
439.0
438.0
438.0
438.0
438.0
439.0
440.0
441.0
442.0
442.0
442.0
443.0
443.0
442.0
443.0
442.0
441.0
439.0
439.0
438.0
436.0
434.0
434.0
432.0
431.0
429.0
428.0
426.0
425.0
423.0
422.0
421.0
420.0
418.0
417.0
416.0
415.0
414.0
414.0
413.0
412.0
411.0
411.0
410.0
409.0
407.0
407.0
407.0
406.0
405.0
405.0
405.0
405.0
405.0
407.0
410.0
414.0
419.0
426.0
433.0
440.0
447.0
453.0
459.0
463.0
467.0
469.0
471.0
472.0
472.0
472.0
471.0
470.0
467.0
466.0
464.0
462.0
461.0
460.0
457.0
456.0
454.0
452.0
450.0
449.0
446.0
445.0
444.0
443.0
442.0
441.0
440.0
441.0
441.0
442.0
443.0
444.0
444.0
446.0
446.0
446.0
447.0
447.0
447.0
446.0
445.0
445.0
444.0
442.0
441.0
440.0
439.0
438.0
436.0
434.0
433.0
431.0
430.0
428.0
427.0
425.0
423.0
422.0
421.0
420.0
418.0
417.0
416.0
415.0
414.0
413.0
413.0
411.0
411.0
411.0
410.0
409.0
409.0
408.0
408.0
409.0
411.0
414.0
417.0
422.0
428.0
435.0
441.0
448.0
454.0
459.0
464.0
468.0
470.0
472.0
473.0
473.0
473.0
472.0
471.0
469.0
467.0
466.0
463.0
462.0
460.0
459.0
457.0
454.0
452.0
450.0
448.0
445.0
445.0
443.0
441.0
441.0
441.0
442.0
442.0
442.0
443.0
445.0
446.0
447.0
448.0
448.0
449.0
449.0
449.0
449.0
449.0
448.0
447.0
447.0
445.0
444.0
443.0
441.0
440.0
439.0
437.0
436.0
434.0
432.0
432.0
431.0
429.0
428.0
427.0
425.0
425.0
424.0
423.0
422.0
421.0
420.0
419.0
419.0
417.0
417.0
415.0
415.0
415.0
415.0
415.0
417.0
419.0
423.0
429.0
436.0
443.0
450.0
456.0
463.0
468.0
472.0
476.0
479.0
481.0
483.0
483.0
483.0
482.0
480.0
479.0
478.0
476.0
474.0
471.0
470.0
468.0
466.0
463.0
462.0
459.0
457.0
454.0
453.0
451.0
449.0
449.0
449.0
449.0
449.0
449.0
450.0
451.0
452.0
452.0
454.0
454.0
455.0
454.0
455.0
455.0
454.0
453.0
453.0
452.0
450.0
449.0
447.0
446.0
444.0
443.0
442.0
440.0
438.0
437.0
435.0
434.0
433.0
431.0
431.0
430.0
428.0
427.0
427.0
426.0
424.0
423.0
423.0
423.0
422.0
421.0
420.0
419.0
419.0
418.0
417.0
417.0
417.0
418.0
421.0
425.0
431.0
436.0
444.0
452.0
459.0
464.0
470.0
476.0
479.0
482.0
484.0
486.0
486.0
486.0
485.0
484.0
482.0
480.0
479.0
477.0
475.0
472.0
470.0
469.0
467.0
465.0
463.0
461.0
459.0
457.0
456.0
455.0
453.0
452.0
452.0
453.0
453.0
454.0
454.0
455.0
456.0
457.0
458.0
458.0
457.0
457.0
457.0
456.0
456.0
454.0
453.0
451.0
450.0
449.0
447.0
445.0
443.0
442.0
440.0
439.0
437.0
435.0
434.0
432.0
431.0
429.0
428.0
427.0
426.0
425.0
424.0
423.0
421.0
420.0
420.0
419.0
418.0
416.0
416.0
415.0
414.0
413.0
413.0
413.0
414.0
416.0
419.0
424.0
430.0
436.0
444.0
452.0
459.0
464.0
470.0
475.0
478.0
481.0
483.0
483.0
484.0
483.0
482.0
481.0
479.0
477.0
475.0
473.0
471.0
469.0
466.0
465.0
463.0
461.0
459.0
457.0
455.0
453.0
452.0
450.0
450.0
448.0
448.0
449.0
449.0
450.0
450.0
451.0
451.0
452.0
453.0
453.0
452.0
452.0
452.0
451.0
450.0
449.0
448.0
447.0
445.0
443.0
442.0
440.0
438.0
436.0
435.0
433.0
432.0
430.0
429.0
427.0
426.0
425.0
423.0
422.0
421.0
420.0
419.0
418.0
417.0
416.0
416.0
415.0
414.0
413.0
412.0
411.0
410.0
410.0
410.0
410.0
410.0
412.0
416.0
420.0
425.0
433.0
440.0
447.0
454.0
461.0
466.0
472.0
475.0
478.0
481.0
482.0
482.0
481.0
481.0
479.0
477.0
475.0
474.0
472.0
470.0
468.0
466.0
464.0
463.0
461.0
460.0
457.0
455.0
453.0
451.0
450.0
449.0
447.0
448.0
448.0
448.0
448.0
449.0
449.0
450.0
450.0
451.0
452.0
452.0
451.0
452.0
451.0
450.0
448.0
448.0
446.0
445.0
443.0
442.0
440.0
439.0
437.0
436.0
435.0
433.0
431.0
430.0
429.0
427.0
426.0
425.0
424.0
422.0
421.0
420.0
419.0
418.0
417.0
417.0
416.0
416.0
414.0
414.0
413.0
412.0
410.0
411.0
410.0
410.0
410.0
412.0
415.0
419.0
425.0
432.0
440.0
447.0
454.0
461.0
466.0
471.0
475.0
478.0
480.0
481.0
480.0
480.0
478.0
477.0
475.0
473.0
471.0
469.0
466.0
465.0
464.0
461.0
459.0
457.0
455.0
453.0
450.0
449.0
447.0
446.0
445.0
445.0
445.0
445.0
445.0
447.0
448.0
448.0
449.0
450.0
450.0
451.0
450.0
450.0
450.0
449.0
447.0
447.0
446.0
444.0
443.0
442.0
441.0
440.0
439.0
438.0
437.0
436.0
434.0
434.0
432.0
432.0
430.0
429.0
428.0
426.0
425.0
424.0
423.0
422.0
420.0
420.0
419.0
418.0
417.0
416.0
415.0
414.0
413.0
413.0
413.0
413.0
414.0
416.0
419.0
425.0
431.0
437.0
444.0
451.0
458.0
464.0
468.0
472.0
475.0
477.0
478.0
478.0
477.0
477.0
475.0
473.0
471.0
468.0
466.0
464.0
461.0
459.0
456.0
454.0
452.0
449.0
447.0
444.0
442.0
440.0
439.0
439.0
438.0
439.0
439.0
440.0
441.0
442.0
443.0
444.0
445.0
446.0
447.0
447.0
447.0
446.0
445.0
445.0
444.0
443.0
441.0
440.0
439.0
437.0
436.0
434.0
433.0
432.0
430.0
429.0
427.0
426.0
425.0
423.0
421.0
420.0
419.0
418.0
417.0
416.0
415.0
413.0
413.0
413.0
412.0
411.0
410.0
409.0
408.0
408.0
407.0
407.0
407.0
407.0
409.0
412.0
416.0
422.0
429.0
437.0
444.0
452.0
458.0
464.0
470.0
473.0
477.0
479.0
481.0
480.0
480.0
479.0
478.0
476.0
474.0
472.0
470.0
468.0
466.0
465.0
463.0
461.0
458.0
456.0
454.0
451.0
448.0
447.0
446.0
445.0
444.0
444.0
444.0
445.0
446.0
447.0
448.0
449.0
450.0
451.0
452.0
451.0
451.0
452.0
451.0
450.0
449.0
448.0
447.0
446.0
444.0
443.0
441.0
439.0
438.0
437.0
435.0
433.0
431.0
430.0
429.0
427.0
425.0
424.0
423.0
422.0
420.0
419.0
418.0
417.0
416.0
416.0
414.0
413.0
413.0
413.0
412.0
411.0
409.0
410.0
409.0
409.0
409.0
410.0
412.0
416.0
421.0
428.0
435.0
443.0
451.0
458.0
466.0
471.0
476.0
481.0
484.0
486.0
487.0
487.0
487.0
486.0
484.0
483.0
481.0
479.0
477.0
475.0
473.0
471.0
469.0
468.0
466.0
464.0
461.0
460.0
458.0
456.0
454.0
453.0
452.0
452.0
452.0
452.0
453.0
454.0
454.0
455.0
457.0
457.0
457.0
457.0
458.0
457.0
456.0
456.0
455.0
454.0
453.0
452.0
450.0
448.0
447.0
445.0
444.0
442.0
441.0
439.0
438.0
436.0
433.0
432.0
431.0
430.0
429.0
427.0
426.0
425.0
423.0
423.0
422.0
421.0
420.0
419.0
419.0
418.0
417.0
417.0
416.0
416.0
415.0
414.0
414.0
414.0
416.0
418.0
421.0
427.0
434.0
442.0
449.0
457.0
464.0
472.0
478.0
483.0
487.0
490.0
492.0
494.0
494.0
493.0
492.0
491.0
489.0
488.0
485.0
483.0
480.0
479.0
477.0
475.0
473.0
471.0
468.0
467.0
464.0
462.0
461.0
459.0
458.0
458.0
457.0
457.0
458.0
459.0
459.0
460.0
461.0
462.0
463.0
464.0
463.0
464.0
463.0
463.0
462.0
461.0
459.0
458.0
457.0
456.0
453.0
452.0
450.0
449.0
447.0
444.0
443.0
442.0
440.0
438.0
436.0
435.0
434.0
432.0
431.0
430.0
428.0
427.0
426.0
426.0
425.0
424.0
423.0
423.0
422.0
420.0
420.0
420.0
419.0
418.0
419.0
420.0
422.0
426.0
432.0
439.0
445.0
453.0
460.0
467.0
473.0
478.0
482.0
486.0
488.0
490.0
490.0
490.0
489.0
488.0
486.0
483.0
482.0
479.0
476.0
474.0
471.0
468.0
465.0
463.0
461.0
457.0
455.0
453.0
452.0
450.0
449.0
449.0
449.0
449.0
450.0
451.0
453.0
454.0
455.0
456.0
457.0
457.0
457.0
458.0
458.0
457.0
456.0
456.0
455.0
454.0
451.0
450.0
448.0
447.0
445.0
443.0
442.0
440.0
438.0
437.0
436.0
434.0
432.0
432.0
429.0
428.0
427.0
426.0
425.0
424.0
423.0
422.0
421.0
420.0
418.0
418.0
418.0
417.0
416.0
416.0
415.0
415.0
415.0
418.0
420.0
425.0
431.0
438.0
446.0
453.0
461.0
468.0
475.0
480.0
485.0
488.0
491.0
492.0
492.0
492.0
492.0
490.0
488.0
485.0
483.0
481.0
478.0
476.0
474.0
472.0
469.0
467.0
465.0
462.0
460.0
458.0
457.0
456.0
454.0
454.0
454.0
454.0
455.0
455.0
457.0
458.0
459.0
459.0
460.0
461.0
461.0
461.0
461.0
460.0
459.0
458.0
458.0
456.0
454.0
453.0
452.0
450.0
448.0
447.0
445.0
443.0
441.0
440.0
438.0
437.0
435.0
434.0
432.0
431.0
430.0
429.0
427.0
427.0
425.0
424.0
424.0
423.0
422.0
421.0
419.0
419.0
418.0
417.0
416.0
415.0
415.0
416.0
417.0
419.0
423.0
429.0
436.0
444.0
452.0
459.0
467.0
473.0
479.0
484.0
488.0
490.0
493.0
494.0
494.0
493.0
491.0
490.0
488.0
486.0
483.0
481.0
479.0
477.0
475.0
473.0
471.0
468.0
466.0
465.0
462.0
460.0
458.0
457.0
456.0
455.0
455.0
455.0
456.0
456.0
457.0
457.0
458.0
458.0
459.0
460.0
459.0
459.0
458.0
458.0
457.0
455.0
454.0
453.0
451.0
450.0
448.0
446.0
445.0
443.0
441.0
439.0
438.0
436.0
435.0
433.0
431.0
430.0
428.0
427.0
426.0
424.0
423.0
422.0
421.0
420.0
418.0
418.0
417.0
416.0
415.0
414.0
413.0
412.0
411.0
410.0
410.0
409.0
408.0
409.0
410.0
412.0
416.0
423.0
430.0
437.0
445.0
453.0
461.0
467.0
473.0
479.0
483.0
486.0
487.0
489.0
489.0
488.0
487.0
486.0
484.0
481.0
479.0
478.0
476.0
473.0
471.0
470.0
469.0
466.0
464.0
462.0
460.0
458.0
456.0
455.0
453.0
452.0
452.0
452.0
452.0
452.0
453.0
454.0
455.0
456.0
455.0
456.0
456.0
456.0
455.0
455.0
454.0
453.0
451.0
450.0
448.0
447.0
445.0
444.0
442.0
440.0
438.0
436.0
435.0
433.0
431.0
429.0
428.0
426.0
424.0
424.0
422.0
421.0
420.0
419.0
418.0
417.0
415.0
415.0
414.0
414.0
413.0
412.0
412.0
411.0
410.0
408.0
408.0
408.0
407.0
408.0
408.0
410.0
413.0
419.0
426.0
432.0
440.0
448.0
456.0
464.0
469.0
475.0
479.0
483.0
485.0
486.0
487.0
487.0
486.0
485.0
482.0
481.0
479.0
477.0
474.0
472.0
470.0
469.0
467.0
465.0
462.0
460.0
457.0
455.0
453.0
452.0
451.0
450.0
450.0
451.0
451.0
452.0
453.0
454.0
455.0
455.0
456.0
457.0
457.0
457.0
456.0
455.0
454.0
454.0
452.0
451.0
450.0
448.0
447.0
445.0
444.0
442.0
440.0
439.0
437.0
436.0
433.0
432.0
430.0
428.0
427.0
426.0
424.0
423.0
422.0
421.0
420.0
418.0
417.0
417.0
416.0
416.0
414.0
414.0
413.0
412.0
411.0
411.0
410.0
409.0
409.0
409.0
410.0
413.0
416.0
422.0
429.0
436.0
444.0
451.0
458.0
464.0
469.0
474.0
477.0
480.0
481.0
482.0
482.0
481.0
479.0
478.0
475.0
472.0
470.0
468.0
466.0
463.0
461.0
459.0
456.0
454.0
451.0
449.0
447.0
446.0
443.0
444.0
443.0
443.0
444.0
445.0
446.0
447.0
448.0
450.0
450.0
451.0
451.0
452.0
452.0
452.0
450.0
450.0
449.0
448.0
447.0
445.0
444.0
442.0
441.0
440.0
439.0
436.0
435.0
434.0
432.0
431.0
429.0
428.0
427.0
425.0
424.0
423.0
421.0
420.0
419.0
419.0
418.0
417.0
416.0
416.0
415.0
414.0
413.0
413.0
412.0
412.0
412.0
412.0
412.0
414.0
417.0
422.0
428.0
434.0
442.0
450.0
458.0
464.0
470.0
476.0
480.0
483.0
485.0
488.0
488.0
487.0
486.0
486.0
484.0
481.0
479.0
477.0
475.0
473.0
471.0
468.0
467.0
465.0
461.0
459.0
457.0
455.0
453.0
452.0
452.0
451.0
451.0
452.0
452.0
453.0
454.0
456.0
457.0
458.0
458.0
459.0
460.0
459.0
458.0
458.0
457.0
456.0
454.0
452.0
451.0
449.0
447.0
446.0
444.0
442.0
440.0
439.0
437.0
435.0
434.0
433.0
432.0
430.0
428.0
427.0
426.0
425.0
424.0
423.0
421.0
421.0
420.0
419.0
418.0
417.0
416.0
416.0
415.0
415.0
413.0
413.0
414.0
414.0
415.0
418.0
423.0
429.0
436.0
444.0
451.0
459.0
466.0
473.0
479.0
484.0
488.0
491.0
493.0
494.0
494.0
493.0
492.0
490.0
488.0
486.0
483.0
482.0
479.0
478.0
476.0
474.0
472.0
470.0
468.0
466.0
463.0
461.0
460.0
459.0
458.0
458.0
457.0
458.0
459.0
460.0
460.0
461.0
462.0
463.0
464.0
463.0
463.0
463.0
463.0
463.0
461.0
460.0
459.0
458.0
456.0
456.0
454.0
452.0
451.0
449.0
447.0
446.0
444.0
442.0
441.0
440.0
437.0
436.0
435.0
433.0
432.0
431.0
430.0
429.0
428.0
428.0
426.0
426.0
424.0
424.0
423.0
422.0
421.0
421.0
420.0
420.0
420.0
421.0
423.0
427.0
432.0
440.0
446.0
455.0
463.0
471.0
478.0
484.0
489.0
494.0
497.0
500.0
500.0
501.0
501.0
499.0
498.0
496.0
494.0
492.0
490.0
489.0
486.0
485.0
483.0
481.0
479.0
477.0
474.0
473.0
471.0
469.0
467.0
466.0
466.0
465.0
464.0
465.0
465.0
466.0
467.0
468.0
467.0
468.0
468.0
469.0
468.0
468.0
466.0
466.0
465.0
464.0
462.0
461.0
459.0
457.0
455.0
454.0
452.0
450.0
448.0
447.0
445.0
443.0
441.0
440.0
438.0
437.0
436.0
435.0
434.0
433.0
431.0
431.0
430.0
429.0
428.0
429.0
428.0
426.0
426.0
425.0
424.0
424.0
423.0
422.0
423.0
422.0
423.0
425.0
428.0
433.0
439.0
447.0
454.0
461.0
469.0
477.0
482.0
488.0
492.0
496.0
498.0
499.0
500.0
499.0
499.0
497.0
495.0
494.0
491.0
489.0
487.0
487.0
485.0
483.0
481.0
480.0
477.0
475.0
473.0
471.0
469.0
468.0
467.0
466.0
466.0
466.0
466.0
467.0
467.0
468.0
468.0
469.0
469.0
470.0
469.0
470.0
469.0
468.0
467.0
466.0
465.0
463.0
461.0
460.0
459.0
457.0
455.0
453.0
452.0
450.0
448.0
447.0
445.0
443.0
442.0
440.0
439.0
438.0
436.0
436.0
435.0
434.0
432.0
432.0
431.0
431.0
430.0
429.0
429.0
428.0
427.0
427.0
426.0
425.0
424.0
424.0
423.0
423.0
423.0
425.0
427.0
431.0
436.0
442.0
450.0
457.0
464.0
471.0
478.0
484.0
488.0
492.0
495.0
496.0
496.0
497.0
496.0
495.0
493.0
491.0
489.0
487.0
485.0
484.0
482.0
480.0
478.0
476.0
474.0
472.0
470.0
468.0
466.0
465.0
464.0
463.0
463.0
463.0
463.0
464.0
465.0
466.0
466.0
467.0
468.0
468.0
468.0
468.0
467.0
466.0
465.0
464.0
462.0
461.0
459.0
458.0
456.0
455.0
453.0
451.0
449.0
447.0
446.0
444.0
442.0
441.0
439.0
438.0
436.0
436.0
435.0
433.0
432.0
432.0
431.0
431.0
430.0
429.0
428.0
428.0
427.0
426.0
425.0
425.0
424.0
424.0
423.0
423.0
423.0
423.0
425.0
428.0
432.0
438.0
443.0
451.0
457.0
464.0
470.0
475.0
480.0
484.0
486.0
488.0
488.0
488.0
488.0
487.0
484.0
483.0
481.0
479.0
477.0
474.0
472.0
470.0
468.0
466.0
463.0
461.0
458.0
457.0
455.0
454.0
453.0
452.0
453.0
454.0
454.0
455.0
455.0
457.0
458.0
458.0
459.0
459.0
458.0
458.0
458.0
457.0
456.0
455.0
454.0
453.0
452.0
450.0
449.0
447.0
445.0
443.0
441.0
440.0
439.0
437.0
435.0
435.0
433.0
432.0
430.0
429.0
428.0
427.0
426.0
426.0
424.0
423.0
423.0
423.0
422.0
421.0
421.0
421.0
420.0
419.0
419.0
418.0
417.0
416.0
416.0
416.0
416.0
415.0
416.0
419.0
423.0
428.0
433.0
441.0
448.0
454.0
461.0
468.0
472.0
477.0
480.0
483.0
484.0
484.0
483.0
483.0
482.0
480.0
478.0
476.0
475.0
473.0
470.0
470.0
468.0
466.0
463.0
462.0
459.0
457.0
455.0
454.0
453.0
452.0
451.0
451.0
450.0
451.0
451.0
453.0
454.0
454.0
454.0
455.0
455.0
455.0
454.0
454.0
453.0
452.0
450.0
449.0
447.0
446.0
444.0
444.0
442.0
440.0
438.0
437.0
435.0
433.0
431.0
430.0
428.0
427.0
425.0
424.0
423.0
422.0
420.0
420.0
419.0
418.0
417.0
416.0
416.0
415.0
415.0
414.0
414.0
413.0
413.0
413.0
412.0
411.0
410.0
410.0
409.0
408.0
407.0
407.0
407.0
407.0
408.0
411.0
416.0
421.0
428.0
436.0
443.0
449.0
456.0
462.0
468.0
472.0
474.0
476.0
477.0
478.0
477.0
476.0
475.0
474.0
471.0
470.0
468.0
466.0
464.0
464.0
463.0
461.0
460.0
457.0
456.0
454.0
452.0
450.0
449.0
448.0
447.0
447.0
447.0
447.0
447.0
448.0
449.0
449.0
449.0
449.0
449.0
449.0
449.0
449.0
448.0
447.0
446.0
445.0
444.0
443.0
441.0
439.0
438.0
437.0
435.0
433.0
431.0
429.0
428.0
427.0
424.0
423.0
422.0
421.0
419.0
419.0
417.0
416.0
416.0
415.0
413.0
412.0
411.0
411.0
410.0
410.0
410.0
409.0
409.0
408.0
408.0
407.0
406.0
406.0
406.0
405.0
405.0
404.0
403.0
402.0
402.0
401.0
401.0
402.0
403.0
407.0
413.0
419.0
425.0
433.0
440.0
447.0
453.0
460.0
464.0
467.0
470.0
473.0
474.0
474.0
473.0
472.0
470.0
469.0
467.0
465.0
463.0
462.0
460.0
459.0
457.0
455.0
454.0
452.0
450.0
448.0
446.0
445.0
443.0
442.0
441.0
441.0
441.0
441.0
441.0
442.0
442.0
442.0
443.0
444.0
444.0
444.0
443.0
442.0
442.0
441.0
440.0
439.0
437.0
436.0
434.0
433.0
431.0
429.0
427.0
426.0
424.0
423.0
421.0
419.0
417.0
416.0
415.0
414.0
412.0
411.0
409.0
409.0
408.0
406.0
405.0
405.0
405.0
404.0
403.0
402.0
402.0
401.0
401.0
401.0
400.0
400.0
400.0
399.0
399.0
398.0
397.0
397.0
396.0
395.0
394.0
394.0
393.0
393.0
393.0
396.0
399.0
404.0
410.0
417.0
424.0
431.0
438.0
445.0
450.0
455.0
458.0
461.0
463.0
464.0
464.0
464.0
462.0
461.0
458.0
457.0
454.0
452.0
450.0
449.0
447.0
444.0
442.0
441.0
439.0
436.0
434.0
432.0
431.0
430.0
430.0
430.0
430.0
430.0
430.0
432.0
433.0
433.0
434.0
435.0
436.0
436.0
436.0
436.0
436.0
435.0
435.0
435.0
433.0
432.0
430.0
429.0
428.0
426.0
424.0
423.0
422.0
420.0
418.0
417.0
416.0
415.0
413.0
412.0
410.0
409.0
407.0
407.0
406.0
405.0
403.0
403.0
403.0
402.0
400.0
400.0
400.0
399.0
398.0
398.0
397.0
396.0
396.0
396.0
395.0
394.0
393.0
393.0
393.0
393.0
393.0
395.0
398.0
403.0
408.0
414.0
421.0
428.0
435.0
442.0
447.0
451.0
455.0
458.0
461.0
461.0
462.0
461.0
461.0
460.0
457.0
455.0
453.0
450.0
447.0
446.0
444.0
442.0
439.0
436.0
434.0
432.0
429.0
428.0
426.0
425.0
424.0
424.0
425.0
425.0
426.0
427.0
428.0
430.0
431.0
432.0
433.0
434.0
434.0
434.0
434.0
434.0
433.0
433.0
432.0
430.0
429.0
428.0
426.0
425.0
422.0
421.0
419.0
418.0
416.0
414.0
412.0
411.0
409.0
408.0
406.0
405.0
403.0
402.0
402.0
400.0
399.0
398.0
397.0
397.0
395.0
396.0
396.0
395.0
395.0
394.0
394.0
394.0
393.0
394.0
393.0
392.0
392.0
392.0
393.0
394.0
396.0
401.0
407.0
414.0
420.0
428.0
435.0
443.0
449.0
454.0
458.0
462.0
464.0
466.0
467.0
467.0
466.0
465.0
464.0
463.0
461.0
458.0
455.0
453.0
451.0
449.0
447.0
445.0
442.0
440.0
438.0
435.0
433.0
432.0
430.0
430.0
429.0
429.0
429.0
430.0
431.0
432.0
433.0
434.0
435.0
436.0
436.0
437.0
437.0
437.0
437.0
436.0
435.0
434.0
433.0
432.0
430.0
429.0
427.0
426.0
424.0
423.0
421.0
419.0
417.0
416.0
415.0
413.0
411.0
410.0
408.0
407.0
406.0
405.0
404.0
403.0
402.0
402.0
400.0
399.0
399.0
398.0
397.0
397.0
396.0
396.0
395.0
395.0
394.0
394.0
395.0
396.0
398.0
403.0
407.0
414.0
422.0
430.0
438.0
445.0
452.0
458.0
464.0
468.0
471.0
475.0
477.0
477.0
478.0
477.0
476.0
475.0
473.0
472.0
469.0
467.0
465.0
463.0
461.0
458.0
456.0
454.0
452.0
449.0
447.0
445.0
443.0
441.0
440.0
440.0
439.0
439.0
439.0
440.0
441.0
441.0
442.0
443.0
444.0
444.0
443.0
444.0
444.0
443.0
442.0
441.0
441.0
439.0
438.0
437.0
435.0
434.0
432.0
431.0
430.0
428.0
426.0
425.0
424.0
422.0
421.0
419.0
418.0
417.0
415.0
414.0
413.0
411.0
411.0
410.0
410.0
408.0
407.0
407.0
407.0
406.0
405.0
405.0
404.0
403.0
402.0
402.0
402.0
403.0
404.0
408.0
413.0
419.0
426.0
434.0
442.0
450.0
457.0
464.0
470.0
475.0
479.0
482.0
484.0
485.0
485.0
485.0
484.0
482.0
479.0
477.0
476.0
473.0
470.0
469.0
467.0
465.0
463.0
461.0
459.0
457.0
455.0
453.0
452.0
450.0
449.0
449.0
449.0
450.0
449.0
451.0
452.0
453.0
453.0
454.0
455.0
455.0
456.0
456.0
456.0
455.0
454.0
453.0
452.0
451.0
449.0
447.0
446.0
445.0
443.0
441.0
439.0
438.0
436.0
434.0
433.0
431.0
429.0
428.0
427.0
425.0
423.0
423.0
422.0
421.0
420.0
419.0
418.0
418.0
416.0
416.0
416.0
415.0
414.0
413.0
413.0
413.0
411.0
412.0
412.0
414.0
417.0
420.0
426.0
433.0
440.0
448.0
456.0
463.0
470.0
476.0
481.0
485.0
487.0
490.0
491.0
491.0
490.0
488.0
486.0
484.0
482.0
479.0
477.0
474.0
472.0
470.0
469.0
466.0
463.0
461.0
459.0
457.0
455.0
453.0
452.0
452.0
452.0
452.0
452.0
454.0
454.0
455.0
457.0
457.0
458.0
459.0
459.0
460.0
459.0
459.0
458.0
457.0
455.0
455.0
453.0
452.0
451.0
449.0
447.0
445.0
444.0
443.0
441.0
440.0
437.0
436.0
435.0
433.0
432.0
431.0
429.0
428.0
427.0
426.0
424.0
423.0
423.0
422.0
421.0
421.0
419.0
419.0
418.0
418.0
418.0
417.0
418.0
419.0
421.0
426.0
431.0
437.0
444.0
452.0
459.0
466.0
472.0
478.0
483.0
487.0
490.0
491.0
491.0
491.0
490.0
489.0
486.0
484.0
481.0
479.0
477.0
474.0
472.0
470.0
467.0
465.0
461.0
459.0
457.0
454.0
453.0
452.0
451.0
451.0
452.0
453.0
453.0
455.0
456.0
457.0
459.0
459.0
459.0
460.0
461.0
460.0
460.0
459.0
458.0
457.0
456.0
455.0
453.0
451.0
450.0
449.0
447.0
445.0
443.0
442.0
441.0
440.0
438.0
437.0
435.0
434.0
432.0
432.0
431.0
430.0
429.0
429.0
428.0
426.0
425.0
425.0
424.0
423.0
422.0
422.0
422.0
422.0
422.0
424.0
425.0
430.0
435.0
442.0
449.0
456.0
463.0
471.0
478.0
484.0
489.0
493.0
496.0
497.0
498.0
499.0
497.0
496.0
493.0
491.0
490.0
487.0
485.0
483.0
482.0
479.0
477.0
475.0
473.0
470.0
468.0
467.0
464.0
463.0
462.0
462.0
462.0
462.0
462.0
463.0
465.0
465.0
466.0
466.0
467.0
467.0
467.0
467.0
466.0
466.0
465.0
464.0
462.0
460.0
458.0
457.0
456.0
454.0
451.0
450.0
447.0
446.0
444.0
442.0
441.0
439.0
438.0
437.0
436.0
434.0
433.0
433.0
432.0
431.0
430.0
429.0
429.0
428.0
426.0
426.0
425.0
424.0
423.0
423.0
423.0
422.0
422.0
425.0
428.0
432.0
438.0
444.0
451.0
459.0
466.0
474.0
480.0
485.0
489.0
492.0
495.0
496.0
495.0
495.0
494.0
492.0
489.0
488.0
485.0
483.0
481.0
481.0
479.0
477.0
475.0
473.0
471.0
470.0
467.0
465.0
464.0
463.0
461.0
460.0
460.0
459.0
459.0
460.0
460.0
460.0
460.0
461.0
461.0
461.0
460.0
460.0
459.0
458.0
456.0
455.0
453.0
451.0
449.0
448.0
446.0
445.0
443.0
441.0
439.0
438.0
436.0
434.0
433.0
431.0
429.0
428.0
427.0
426.0
424.0
423.0
422.0
422.0
421.0
420.0
419.0
419.0
418.0
418.0
417.0
416.0
415.0
414.0
413.0
413.0
412.0
411.0
412.0
412.0
414.0
416.0
420.0
426.0
432.0
440.0
446.0
453.0
459.0
465.0
470.0
474.0
476.0
478.0
480.0
480.0
479.0
478.0
477.0
476.0
474.0
473.0
471.0
470.0
468.0
467.0
466.0
465.0
463.0
461.0
460.0
458.0
456.0
454.0
452.0
451.0
450.0
450.0
449.0
449.0
449.0
449.0
449.0
449.0
449.0
449.0
449.0
449.0
447.0
447.0
446.0
445.0
444.0
442.0
441.0
439.0
438.0
436.0
434.0
432.0
430.0
429.0
428.0
426.0
424.0
423.0
422.0
420.0
419.0
419.0
417.0
416.0
415.0
415.0
413.0
412.0
411.0
411.0
411.0
410.0
409.0
409.0
408.0
408.0
407.0
407.0
406.0
406.0
405.0
405.0
404.0
403.0
402.0
402.0
402.0
402.0
403.0
406.0
411.0
416.0
422.0
429.0
435.0
442.0
448.0
454.0
458.0
460.0
463.0
466.0
466.0
467.0
466.0
465.0
464.0
462.0
461.0
460.0
459.0
457.0
456.0
456.0
455.0
453.0
452.0
450.0
449.0
447.0
444.0
443.0
442.0
441.0
440.0
440.0
441.0
441.0
441.0
442.0
442.0
442.0
443.0
443.0
443.0
443.0
441.0
441.0
440.0
439.0
438.0
437.0
435.0
434.0
432.0
432.0
430.0
428.0
426.0
426.0
424.0
423.0
421.0
420.0
419.0
417.0
416.0
416.0
414.0
413.0
412.0
412.0
411.0
410.0
409.0
410.0
410.0
410.0
410.0
411.0
411.0
411.0
411.0
411.0
412.0
412.0
411.0
412.0
411.0
410.0
409.0
409.0
408.0
408.0
406.0
405.0
404.0
403.0
402.0
401.0
401.0
402.0
404.0
408.0
412.0
417.0
423.0
429.0
435.0
440.0
443.0
447.0
450.0
452.0
453.0
453.0
453.0
452.0
451.0
449.0
448.0
446.0
444.0
443.0
442.0
440.0
438.0
437.0
436.0
434.0
432.0
430.0
429.0
427.0
426.0
425.0
425.0
425.0
425.0
425.0
426.0
426.0
427.0
427.0
428.0
428.0
428.0
428.0
428.0
428.0
427.0
426.0
425.0
424.0
423.0
422.0
420.0
419.0
417.0
416.0
415.0
413.0
411.0
411.0
409.0
408.0
407.0
406.0
404.0
403.0
402.0
402.0
400.0
400.0
399.0
398.0
398.0
397.0
396.0
396.0
396.0
396.0
395.0
395.0
395.0
394.0
394.0
393.0
393.0
393.0
392.0
392.0
390.0
390.0
389.0
388.0
388.0
387.0
386.0
385.0
385.0
386.0
387.0
390.0
394.0
398.0
403.0
408.0
412.0
417.0
421.0
424.0
427.0
429.0
429.0
430.0
430.0
429.0
428.0
427.0
425.0
424.0
422.0
421.0
419.0
418.0
417.0
417.0
415.0
414.0
412.0
411.0
409.0
408.0
407.0
406.0
405.0
405.0
405.0
405.0
405.0
405.0
406.0
407.0
407.0
407.0
407.0
407.0
407.0
406.0
405.0
405.0
404.0
404.0
403.0
402.0
401.0
400.0
399.0
397.0
396.0
395.0
394.0
393.0
392.0
390.0
390.0
389.0
388.0
387.0
385.0
385.0
384.0
383.0
382.0
382.0
381.0
380.0
379.0
379.0
378.0
377.0
377.0
377.0
376.0
375.0
375.0
374.0
374.0
373.0
373.0
372.0
371.0
371.0
370.0
370.0
368.0
368.0
367.0
367.0
366.0
366.0
365.0
367.0
369.0
372.0
376.0
380.0
384.0
388.0
392.0
396.0
398.0
400.0
402.0
403.0
403.0
403.0
402.0
402.0
401.0
400.0
399.0
398.0
397.0
395.0
394.0
394.0
393.0
393.0
392.0
392.0
391.0
389.0
389.0
388.0
388.0
387.0
387.0
386.0
387.0
387.0
386.0
388.0
387.0
388.0
388.0
389.0
389.0
389.0
389.0
389.0
389.0
388.0
387.0
387.0
387.0
386.0
385.0
385.0
383.0
383.0
381.0
382.0
381.0
380.0
379.0
378.0
378.0
377.0
375.0
375.0
374.0
374.0
374.0
373.0
372.0
372.0
371.0
372.0
371.0
370.0
370.0
370.0
370.0
369.0
368.0
369.0
368.0
368.0
367.0
367.0
367.0
367.0
367.0
366.0
366.0
366.0
365.0
365.0
365.0
364.0
364.0
365.0
365.0
366.0
367.0
371.0
375.0
380.0
383.0
387.0
391.0
394.0
396.0
398.0
399.0
399.0
398.0
398.0
398.0
398.0
396.0
395.0
394.0
393.0
392.0
392.0
391.0
391.0
390.0
390.0
390.0
389.0
388.0
388.0
387.0
387.0
385.0
386.0
386.0
386.0
385.0
386.0
386.0
387.0
387.0
388.0
388.0
388.0
388.0
389.0
389.0
389.0
388.0
387.0
387.0
386.0
386.0
385.0
384.0
384.0
383.0
383.0
382.0
381.0
380.0
379.0
379.0
379.0
378.0
377.0
376.0
376.0
375.0
375.0
375.0
374.0
373.0
373.0
373.0
373.0
372.0
372.0
372.0
372.0
371.0
372.0
371.0
371.0
371.0
371.0
371.0
371.0
371.0
370.0
370.0
370.0
370.0
369.0
369.0
369.0
369.0
369.0
369.0
371.0
372.0
376.0
380.0
384.0
388.0
392.0
396.0
398.0
400.0
401.0
403.0
404.0
404.0
403.0
402.0
402.0
400.0
400.0
399.0
398.0
396.0
396.0
395.0
394.0
394.0
393.0
393.0
393.0
392.0
391.0
390.0
390.0
390.0
390.0
390.0
390.0
390.0
391.0
392.0
393.0
393.0
394.0
395.0
397.0
397.0
397.0
398.0
398.0
398.0
399.0
398.0
397.0
398.0
397.0
396.0
396.0
395.0
395.0
394.0
394.0
393.0
393.0
391.0
391.0
391.0
390.0
389.0
390.0
389.0
389.0
388.0
388.0
388.0
388.0
388.0
388.0
388.0
388.0
387.0
388.0
387.0
387.0
387.0
387.0
387.0
387.0
386.0
386.0
386.0
386.0
387.0
386.0
386.0
387.0
389.0
391.0
394.0
398.0
402.0
406.0
409.0
413.0
415.0
416.0
417.0
418.0
419.0
419.0
418.0
417.0
417.0
416.0
414.0
413.0
412.0
411.0
410.0
409.0
408.0
407.0
406.0
407.0
406.0
405.0
404.0
404.0
403.0
404.0
403.0
404.0
404.0
405.0
405.0
407.0
408.0
408.0
409.0
410.0
411.0
411.0
411.0
411.0
411.0
411.0
410.0
410.0
410.0
409.0
408.0
408.0
408.0
407.0
406.0
406.0
405.0
405.0
403.0
403.0
403.0
402.0
401.0
401.0
400.0
400.0
400.0
400.0
399.0
399.0
398.0
398.0
398.0
398.0
397.0
397.0
397.0
396.0
396.0
396.0
396.0
395.0
395.0
395.0
396.0
397.0
398.0
401.0
405.0
408.0
412.0
417.0
421.0
424.0
425.0
428.0
430.0
430.0
430.0
431.0
431.0
430.0
429.0
429.0
428.0
426.0
425.0
424.0
424.0
423.0
422.0
422.0
422.0
421.0
420.0
420.0
419.0
418.0
417.0
418.0
418.0
418.0
418.0
419.0
419.0
420.0
421.0
422.0
423.0
424.0
424.0
425.0
425.0
425.0
425.0
425.0
425.0
425.0
424.0
424.0
423.0
423.0
422.0
422.0
422.0
421.0
420.0
420.0
419.0
419.0
417.0
417.0
417.0
417.0
416.0
415.0
415.0
415.0
414.0
414.0
414.0
413.0
413.0
413.0
413.0
412.0
411.0
411.0
410.0
410.0
410.0
410.0
409.0
410.0
410.0
411.0
414.0
416.0
420.0
424.0
428.0
432.0
436.0
438.0
441.0
443.0
444.0
445.0
444.0
444.0
444.0
444.0
443.0
442.0
441.0
440.0
439.0
439.0
439.0
438.0
438.0
438.0
437.0
437.0
436.0
435.0
435.0
435.0
434.0
434.0
434.0
434.0
434.0
435.0
435.0
436.0
437.0
437.0
438.0
438.0
438.0
438.0
438.0
439.0
438.0
438.0
437.0
437.0
436.0
435.0
435.0
434.0
433.0
432.0
432.0
431.0
430.0
429.0
429.0
428.0
428.0
427.0
425.0
425.0
424.0
424.0
423.0
423.0
422.0
422.0
421.0
421.0
420.0
419.0
419.0
419.0
418.0
418.0
417.0
417.0
416.0
416.0
416.0
416.0
416.0
416.0
418.0
421.0
423.0
427.0
431.0
436.0
440.0
444.0
447.0
450.0
452.0
453.0
453.0
454.0
454.0
453.0
453.0
452.0
450.0
450.0
449.0
448.0
447.0
446.0
445.0
445.0
445.0
444.0
443.0
442.0
442.0
441.0
440.0
440.0
440.0
439.0
439.0
440.0
440.0
441.0
441.0
442.0
443.0
443.0
444.0
445.0
444.0
444.0
444.0
443.0
443.0
442.0
441.0
441.0
440.0
440.0
439.0
438.0
437.0
436.0
436.0
435.0
434.0
434.0
433.0
433.0
432.0
431.0
430.0
430.0
430.0
429.0
428.0
428.0
427.0
426.0
426.0
427.0
427.0
425.0
425.0
425.0
425.0
424.0
423.0
424.0
423.0
423.0
423.0
423.0
423.0
423.0
424.0
427.0
430.0
433.0
438.0
443.0
447.0
451.0
454.0
457.0
460.0
461.0
462.0
463.0
462.0
462.0
461.0
461.0
460.0
458.0
457.0
456.0
456.0
455.0
453.0
453.0
453.0
452.0
450.0
450.0
449.0
448.0
447.0
448.0
448.0
447.0
447.0
448.0
449.0
450.0
450.0
451.0
452.0
453.0
453.0
454.0
454.0
453.0
453.0
453.0
453.0
452.0
451.0
451.0
450.0
449.0
448.0
447.0
447.0
446.0
445.0
445.0
444.0
443.0
442.0
442.0
442.0
442.0
440.0
440.0
439.0
439.0
438.0
438.0
438.0
437.0
437.0
437.0
436.0
436.0
436.0
436.0
436.0
436.0
435.0
434.0
434.0
434.0
433.0
433.0
432.0
433.0
433.0
435.0
438.0
442.0
445.0
450.0
455.0
459.0
462.0
465.0
468.0
470.0
471.0
472.0
472.0
471.0
470.0
470.0
469.0
467.0
465.0
464.0
463.0
463.0
462.0
460.0
460.0
459.0
458.0
457.0
456.0
455.0
454.0
453.0
453.0
453.0
453.0
453.0
454.0
455.0
454.0
455.0
456.0
456.0
457.0
457.0
456.0
457.0
456.0
456.0
455.0
454.0
453.0
452.0
452.0
451.0
449.0
448.0
447.0
446.0
446.0
444.0
443.0
443.0
442.0
441.0
441.0
439.0
438.0
439.0
438.0
437.0
436.0
436.0
435.0
435.0
434.0
435.0
435.0
434.0
434.0
434.0
433.0
433.0
433.0
433.0
432.0
432.0
431.0
430.0
430.0
429.0
429.0
429.0
429.0
431.0
433.0
437.0
441.0
445.0
450.0
455.0
459.0
463.0
466.0
468.0
470.0
470.0
471.0
471.0
470.0
469.0
468.0
467.0
465.0
464.0
463.0
462.0
461.0
461.0
460.0
460.0
458.0
458.0
456.0
456.0
455.0
454.0
453.0
453.0
453.0
452.0
452.0
453.0
454.0
454.0
455.0
456.0
455.0
456.0
456.0
456.0
455.0
454.0
454.0
453.0
452.0
451.0
449.0
449.0
448.0
447.0
446.0
445.0
443.0
443.0
441.0
441.0
440.0
439.0
437.0
437.0
436.0
435.0
434.0
434.0
433.0
432.0
432.0
432.0
431.0
431.0
430.0
430.0
429.0
429.0
428.0
429.0
428.0
427.0
427.0
428.0
427.0
426.0
425.0
425.0
425.0
423.0
422.0
423.0
423.0
422.0
423.0
425.0
428.0
431.0
436.0
441.0
446.0
451.0
455.0
459.0
462.0
465.0
466.0
468.0
469.0
468.0
467.0
466.0
465.0
464.0
463.0
462.0
461.0
460.0
459.0
459.0
458.0
457.0
456.0
456.0
456.0
454.0
453.0
453.0
452.0
451.0
450.0
451.0
451.0
451.0
452.0
452.0
453.0
453.0
453.0
454.0
454.0
453.0
453.0
453.0
452.0
451.0
450.0
449.0
448.0
447.0
446.0
445.0
444.0
442.0
441.0
440.0
440.0
438.0
437.0
436.0
435.0
434.0
433.0
432.0
432.0
431.0
430.0
429.0
428.0
428.0
427.0
427.0
427.0
426.0
425.0
425.0
425.0
424.0
424.0
424.0
423.0
423.0
422.0
422.0
422.0
421.0
421.0
421.0
420.0
420.0
418.0
418.0
417.0
418.0
418.0
420.0
422.0
426.0
431.0
436.0
441.0
446.0
451.0
456.0
460.0
462.0
464.0
465.0
466.0
466.0
465.0
464.0
463.0
462.0
460.0
459.0
458.0
456.0
456.0
455.0
455.0
455.0
453.0
452.0
452.0
451.0
449.0
448.0
448.0
447.0
446.0
447.0
447.0
447.0
447.0
448.0
448.0
449.0
448.0
449.0
449.0
449.0
449.0
449.0
448.0
447.0
446.0
446.0
445.0
444.0
442.0
442.0
440.0
440.0
439.0
437.0
436.0
435.0
434.0
433.0
433.0
431.0
430.0
430.0
429.0
428.0
427.0
427.0
426.0
426.0
425.0
425.0
424.0
424.0
423.0
424.0
423.0
422.0
422.0
422.0
422.0
422.0
420.0
420.0
420.0
420.0
419.0
418.0
418.0
417.0
417.0
417.0
416.0
416.0
416.0
417.0
417.0
419.0
422.0
426.0
431.0
436.0
442.0
447.0
451.0
455.0
459.0
462.0
463.0
464.0
465.0
465.0
464.0
462.0
461.0
460.0
459.0
457.0
455.0
454.0
453.0
452.0
451.0
450.0
449.0
448.0
447.0
446.0
445.0
444.0
443.0
443.0
443.0
444.0
443.0
444.0
445.0
446.0
446.0
447.0
447.0
448.0
448.0
448.0
448.0
447.0
446.0
446.0
445.0
444.0
443.0
442.0
441.0
440.0
439.0
439.0
437.0
436.0
435.0
434.0
433.0
432.0
431.0
431.0
430.0
430.0
428.0
428.0
427.0
426.0
426.0
425.0
425.0
425.0
424.0
425.0
424.0
423.0
423.0
423.0
423.0
423.0
422.0
422.0
421.0
420.0
420.0
420.0
419.0
418.0
418.0
418.0
418.0
417.0
418.0
421.0
424.0
428.0
432.0
438.0
443.0
448.0
453.0
457.0
460.0
462.0
464.0
465.0
466.0
465.0
464.0
463.0
462.0
460.0
457.0
456.0
454.0
453.0
452.0
451.0
450.0
448.0
447.0
446.0
444.0
443.0
442.0
442.0
442.0
441.0
441.0
441.0
442.0
443.0
443.0
444.0
445.0
446.0
447.0
447.0
447.0
447.0
447.0
447.0
446.0
446.0
444.0
443.0
443.0
442.0
440.0
440.0
438.0
437.0
435.0
435.0
434.0
432.0
431.0
430.0
430.0
429.0
427.0
427.0
426.0
426.0
424.0
424.0
423.0
423.0
422.0
422.0
422.0
421.0
420.0
420.0
420.0
420.0
419.0
419.0
419.0
418.0
418.0
417.0
416.0
416.0
415.0
415.0
415.0
415.0
416.0
419.0
424.0
428.0
433.0
439.0
445.0
450.0
455.0
459.0
463.0
466.0
467.0
469.0
468.0
468.0
467.0
466.0
465.0
463.0
461.0
459.0
458.0
457.0
455.0
454.0
453.0
452.0
451.0
450.0
448.0
447.0
446.0
446.0
445.0
444.0
444.0
444.0
444.0
445.0
445.0
446.0
447.0
447.0
448.0
448.0
448.0
448.0
448.0
448.0
448.0
447.0
446.0
445.0
444.0
443.0
441.0
440.0
439.0
438.0
437.0
436.0
434.0
433.0
432.0
431.0
430.0
429.0
428.0
427.0
426.0
425.0
424.0
423.0
423.0
422.0
422.0
421.0
420.0
420.0
419.0
419.0
419.0
419.0
418.0
418.0
417.0
417.0
416.0
416.0
415.0
415.0
414.0
414.0
414.0
415.0
416.0
420.0
423.0
429.0
434.0
441.0
446.0
451.0
457.0
461.0
464.0
467.0
468.0
468.0
468.0
468.0
467.0
465.0
463.0
461.0
460.0
458.0
456.0
454.0
453.0
452.0
451.0
450.0
449.0
448.0
447.0
445.0
444.0
443.0
442.0
441.0
441.0
442.0
442.0
442.0
443.0
444.0
444.0
445.0
445.0
446.0
446.0
446.0
445.0
446.0
444.0
443.0
442.0
442.0
441.0
439.0
437.0
437.0
436.0
434.0
433.0
432.0
430.0
429.0
429.0
427.0
426.0
425.0
424.0
424.0
422.0
422.0
420.0
420.0
420.0
419.0
418.0
418.0
418.0
417.0
416.0
416.0
416.0
416.0
415.0
415.0
413.0
413.0
412.0
412.0
412.0
412.0
412.0
414.0
417.0
421.0
426.0
431.0
436.0
441.0
446.0
450.0
452.0
455.0
456.0
457.0
457.0
457.0
455.0
454.0
453.0
451.0
449.0
447.0
446.0
444.0
443.0
442.0
440.0
438.0
437.0
436.0
435.0
433.0
432.0
431.0
431.0
430.0
430.0
431.0
431.0
432.0
432.0
434.0
435.0
435.0
435.0
437.0
438.0
437.0
437.0
436.0
436.0
435.0
435.0
434.0
433.0
432.0
431.0
431.0
430.0
428.0
427.0
426.0
425.0
425.0
423.0
422.0
422.0
421.0
420.0
419.0
418.0
418.0
417.0
416.0
416.0
415.0
414.0
413.0
413.0
412.0
411.0
410.0
410.0
410.0
409.0
410.0
410.0
410.0
412.0
414.0
418.0
422.0
426.0
431.0
435.0
439.0
442.0
444.0
446.0
447.0
447.0
447.0
447.0
446.0
444.0
443.0
441.0
440.0
437.0
436.0
435.0
434.0
433.0
431.0
430.0
429.0
426.0
426.0
425.0
423.0
422.0
423.0
422.0
423.0
423.0
423.0
424.0
425.0
426.0
426.0
426.0
427.0
427.0
427.0
427.0
426.0
425.0
425.0
424.0
423.0
422.0
421.0
420.0
419.0
418.0
417.0
416.0
415.0
414.0
413.0
412.0
411.0
411.0
410.0
409.0
409.0
407.0
407.0
407.0
406.0
405.0
405.0
405.0
404.0
404.0
403.0
403.0
403.0
402.0
402.0
401.0
401.0
400.0
401.0
400.0
401.0
402.0
404.0
408.0
412.0
416.0
421.0
426.0
430.0
434.0
437.0
439.0
441.0
441.0
442.0
442.0
441.0
440.0
439.0
438.0
436.0
434.0
433.0
432.0
431.0
430.0
429.0
428.0
428.0
427.0
426.0
424.0
423.0
423.0
422.0
421.0
422.0
421.0
422.0
422.0
423.0
424.0
424.0
424.0
425.0
425.0
426.0
426.0
425.0
425.0
424.0
423.0
423.0
422.0
421.0
420.0
420.0
418.0
417.0
417.0
416.0
415.0
414.0
413.0
412.0
411.0
410.0
409.0
408.0
407.0
407.0
407.0
406.0
406.0
406.0
405.0
405.0
404.0
405.0
404.0
403.0
403.0
403.0
403.0
402.0
401.0
402.0
401.0
400.0
400.0
400.0
400.0
401.0
403.0
406.0
410.0
415.0
419.0
424.0
428.0
431.0
434.0
437.0
439.0
440.0
440.0
440.0
439.0
438.0
437.0
435.0
434.0
433.0
431.0
431.0
430.0
429.0
428.0
428.0
428.0
427.0
425.0
425.0
424.0
422.0
422.0
421.0
421.0
420.0
420.0
421.0
421.0
422.0
422.0
423.0
424.0
424.0
424.0
424.0
425.0
424.0
423.0
423.0
422.0
422.0
420.0
420.0
419.0
418.0
417.0
417.0
416.0
415.0
414.0
413.0
413.0
412.0
411.0
411.0
410.0
409.0
408.0
408.0
408.0
407.0
406.0
407.0
407.0
406.0
405.0
406.0
406.0
405.0
405.0
405.0
405.0
405.0
404.0
405.0
403.0
403.0
403.0
403.0
402.0
402.0
401.0
402.0
403.0
404.0
407.0
410.0
415.0
420.0
424.0
429.0
433.0
437.0
440.0
443.0
445.0
446.0
445.0
446.0
445.0
444.0
443.0
442.0
441.0
440.0
438.0
438.0
437.0
437.0
436.0
436.0
435.0
434.0
434.0
433.0
432.0
432.0
430.0
430.0
430.0
430.0
430.0
431.0
431.0
432.0
432.0
433.0
433.0
433.0
433.0
433.0
433.0
433.0
432.0
432.0
431.0
430.0
430.0
428.0
427.0
427.0
426.0
425.0
424.0
423.0
422.0
422.0
421.0
420.0
419.0
419.0
418.0
418.0
416.0
416.0
416.0
415.0
415.0
414.0
414.0
414.0
413.0
413.0
412.0
412.0
412.0
412.0
412.0
412.0
411.0
411.0
411.0
411.0
410.0
410.0
410.0
409.0
409.0
408.0
408.0
408.0
407.0
407.0
407.0
407.0
409.0
412.0
415.0
419.0
424.0
430.0
435.0
439.0
443.0
447.0
450.0
452.0
453.0
454.0
454.0
453.0
453.0
452.0
451.0
449.0
448.0
448.0
447.0
446.0
445.0
445.0
445.0
444.0
443.0
443.0
442.0
441.0
440.0
439.0
439.0
439.0
439.0
440.0
440.0
441.0
442.0
443.0
443.0
443.0
443.0
444.0
444.0
444.0
443.0
443.0
442.0
442.0
441.0
441.0
439.0
438.0
437.0
437.0
436.0
435.0
434.0
434.0
433.0
432.0
431.0
431.0
430.0
429.0
428.0
428.0
427.0
427.0
426.0
426.0
426.0
425.0
424.0
424.0
424.0
423.0
423.0
423.0
423.0
422.0
422.0
422.0
422.0
422.0
422.0
421.0
421.0
421.0
420.0
420.0
419.0
419.0
418.0
418.0
418.0
417.0
416.0
416.0
417.0
419.0
421.0
425.0
430.0
434.0
439.0
445.0
449.0
453.0
456.0
459.0
461.0
461.0
462.0
462.0
461.0
460.0
458.0
458.0
456.0
454.0
452.0
452.0
451.0
450.0
449.0
448.0
447.0
446.0
445.0
445.0
444.0
444.0
444.0
444.0
445.0
445.0
446.0
447.0
449.0
449.0
450.0
451.0
451.0
452.0
452.0
452.0
451.0
451.0
450.0
450.0
449.0
447.0
446.0
446.0
445.0
444.0
442.0
441.0
440.0
439.0
438.0
437.0
436.0
436.0
434.0
434.0
433.0
432.0
431.0
431.0
431.0
429.0
429.0
428.0
428.0
428.0
427.0
427.0
426.0
426.0
426.0
425.0
425.0
425.0
424.0
424.0
423.0
423.0
422.0
422.0
422.0
421.0
421.0
422.0
424.0
427.0
430.0
435.0
440.0
445.0
450.0
455.0
459.0
462.0
465.0
467.0
468.0
468.0
468.0
468.0
467.0
466.0
463.0
462.0
461.0
459.0
458.0
456.0
455.0
454.0
453.0
452.0
449.0
449.0
448.0
447.0
446.0
445.0
445.0
445.0
446.0
446.0
446.0
447.0
448.0
449.0
450.0
451.0
451.0
451.0
451.0
451.0
451.0
450.0
449.0
449.0
448.0
447.0
446.0
444.0
443.0
442.0
441.0
440.0
439.0
438.0
437.0
436.0
435.0
434.0
432.0
432.0
431.0
430.0
429.0
429.0
428.0
427.0
427.0
426.0
425.0
425.0
424.0
425.0
424.0
424.0
423.0
423.0
423.0
422.0
422.0
421.0
420.0
420.0
420.0
420.0
419.0
420.0
421.0
424.0
427.0
432.0
436.0
442.0
447.0
453.0
458.0
463.0
466.0
469.0
471.0
472.0
472.0
472.0
471.0
470.0
469.0
466.0
464.0
463.0
462.0
460.0
458.0
458.0
456.0
455.0
454.0
453.0
452.0
451.0
450.0
449.0
448.0
448.0
447.0
448.0
448.0
449.0
449.0
450.0
451.0
451.0
452.0
452.0
452.0
453.0
452.0
453.0
451.0
451.0
450.0
449.0
448.0
446.0
445.0
445.0
444.0
442.0
440.0
439.0
438.0
437.0
436.0
434.0
434.0
433.0
431.0
431.0
430.0
429.0
428.0
428.0
427.0
426.0
425.0
425.0
424.0
424.0
423.0
423.0
423.0
423.0
422.0
422.0
422.0
421.0
421.0
421.0
420.0
419.0
418.0
419.0
419.0
418.0
419.0
421.0
424.0
428.0
433.0
439.0
445.0
450.0
456.0
462.0
466.0
469.0
471.0
474.0
474.0
474.0
474.0
473.0
471.0
469.0
467.0
466.0
464.0
463.0
460.0
460.0
459.0
457.0
456.0
455.0
454.0
452.0
451.0
451.0
449.0
448.0
448.0
448.0
448.0
449.0
448.0
450.0
450.0
451.0
451.0
452.0
453.0
453.0
453.0
454.0
453.0
452.0
451.0
450.0
450.0
448.0
447.0
446.0
446.0
444.0
442.0
441.0
440.0
439.0
438.0
437.0
436.0
435.0
433.0
433.0
432.0
431.0
430.0
430.0
430.0
429.0
427.0
427.0
427.0
427.0
426.0
425.0
426.0
425.0
425.0
425.0
424.0
423.0
422.0
422.0
422.0
421.0
420.0
420.0
421.0
422.0
423.0
426.0
430.0
434.0
439.0
445.0
451.0
455.0
460.0
464.0
466.0
468.0
468.0
468.0
468.0
468.0
465.0
464.0
463.0
461.0
458.0
457.0
455.0
453.0
452.0
451.0
449.0
448.0
446.0
445.0
444.0
443.0
441.0
441.0
441.0
441.0
441.0
441.0
442.0
443.0
444.0
445.0
446.0
447.0
447.0
447.0
448.0
447.0
447.0
447.0
446.0
446.0
444.0
443.0
442.0
442.0
440.0
439.0
438.0
437.0
435.0
435.0
433.0
432.0
431.0
430.0
429.0
428.0
426.0
426.0
425.0
425.0
424.0
423.0
423.0
422.0
421.0
421.0
420.0
420.0
420.0
419.0
418.0
418.0
418.0
418.0
417.0
417.0
417.0
418.0
420.0
422.0
426.0
431.0
435.0
441.0
446.0
451.0
455.0
459.0
462.0
464.0
465.0
465.0
465.0
464.0
463.0
462.0
459.0
458.0
456.0
454.0
452.0
451.0
450.0
448.0
447.0
446.0
444.0
442.0
441.0
440.0
439.0
438.0
438.0
438.0
439.0
439.0
440.0
440.0
441.0
442.0
443.0
444.0
444.0
444.0
444.0
444.0
444.0
443.0
442.0
442.0
441.0
440.0
438.0
438.0
437.0
435.0
434.0
433.0
432.0
431.0
429.0
430.0
429.0
427.0
426.0
426.0
425.0
424.0
423.0
423.0
422.0
422.0
421.0
420.0
420.0
419.0
419.0
419.0
419.0
418.0
417.0
417.0
417.0
416.0
415.0
416.0
416.0
416.0
416.0
418.0
421.0
425.0
430.0
436.0
442.0
447.0
452.0
457.0
460.0
463.0
464.0
466.0
466.0
466.0
465.0
464.0
462.0
460.0
459.0
457.0
457.0
454.0
453.0
452.0
451.0
450.0
449.0
448.0
447.0
445.0
445.0
444.0
443.0
443.0
442.0
443.0
443.0
444.0
444.0
445.0
446.0
447.0
446.0
447.0
448.0
447.0
447.0
447.0
446.0
446.0
445.0
444.0
443.0
442.0
441.0
440.0
439.0
437.0
435.0
435.0
434.0
433.0
431.0
430.0
430.0
429.0
428.0
427.0
426.0
426.0
424.0
424.0
424.0
423.0
422.0
422.0
422.0
421.0
421.0
420.0
420.0
420.0
419.0
419.0
418.0
418.0
417.0
417.0
417.0
417.0
416.0
417.0
420.0
423.0
427.0
432.0
437.0
443.0
448.0
454.0
459.0
463.0
465.0
468.0
469.0
470.0
469.0
468.0
467.0
466.0
465.0
463.0
462.0
460.0
459.0
458.0
458.0
456.0
456.0
455.0
455.0
454.0
452.0
451.0
450.0
450.0
449.0
449.0
448.0
449.0
449.0
450.0
450.0
451.0
451.0
452.0
453.0
453.0
452.0
452.0
452.0
452.0
451.0
450.0
449.0
448.0
447.0
446.0
445.0
444.0
442.0
442.0
440.0
440.0
438.0
437.0
437.0
436.0
435.0
434.0
433.0
432.0
431.0
431.0
431.0
430.0
429.0
429.0
428.0
428.0
428.0
427.0
427.0
427.0
427.0
427.0
427.0
426.0
426.0
425.0
425.0
425.0
423.0
423.0
422.0
422.0
422.0
422.0
423.0
425.0
428.0
433.0
438.0
443.0
448.0
455.0
460.0
465.0
469.0
471.0
474.0
475.0
475.0
475.0
474.0
473.0
471.0
470.0
468.0
467.0
465.0
465.0
464.0
463.0
463.0
462.0
461.0
460.0
459.0
458.0
457.0
456.0
455.0
455.0
455.0
455.0
454.0
455.0
456.0
456.0
456.0
457.0
457.0
457.0
457.0
457.0
457.0
456.0
455.0
455.0
454.0
453.0
451.0
451.0
450.0
448.0
447.0
446.0
445.0
444.0
443.0
442.0
441.0
440.0
439.0
438.0
438.0
437.0
436.0
435.0
435.0
434.0
433.0
433.0
432.0
432.0
431.0
432.0
431.0
430.0
430.0
430.0
430.0
429.0
428.0
429.0
428.0
428.0
427.0
427.0
426.0
425.0
424.0
425.0
423.0
423.0
422.0
423.0
424.0
425.0
428.0
433.0
439.0
444.0
449.0
455.0
460.0
464.0
468.0
471.0
472.0
472.0
472.0
472.0
471.0
469.0
467.0
466.0
464.0
463.0
461.0
460.0
459.0
458.0
457.0
457.0
455.0
454.0
452.0
451.0
450.0
449.0
448.0
449.0
449.0
449.0
449.0
451.0
451.0
452.0
453.0
453.0
454.0
454.0
454.0
454.0
453.0
452.0
451.0
451.0
450.0
449.0
447.0
447.0
446.0
444.0
443.0
442.0
441.0
440.0
439.0
438.0
437.0
436.0
435.0
435.0
434.0
433.0
432.0
432.0
431.0
431.0
430.0
429.0
430.0
430.0
429.0
429.0
429.0
428.0
427.0
428.0
428.0
428.0
426.0
426.0
426.0
425.0
424.0
424.0
423.0
423.0
422.0
422.0
422.0
422.0
423.0
425.0
429.0
433.0
437.0
443.0
449.0
455.0
460.0
464.0
468.0
470.0
472.0
473.0
473.0
472.0
471.0
470.0
468.0
467.0
464.0
463.0
462.0
460.0
459.0
457.0
456.0
455.0
454.0
453.0
451.0
450.0
449.0
448.0
448.0
448.0
447.0
447.0
448.0
449.0
449.0
450.0
450.0
451.0
451.0
452.0
451.0
451.0
450.0
450.0
449.0
448.0
448.0
446.0
445.0
444.0
443.0
442.0
441.0
440.0
439.0
438.0
437.0
435.0
434.0
433.0
433.0
432.0
431.0
431.0
429.0
429.0
428.0
428.0
427.0
426.0
425.0
425.0
425.0
425.0
424.0
424.0
424.0
424.0
424.0
423.0
423.0
423.0
423.0
423.0
422.0
421.0
420.0
420.0
419.0
419.0
419.0
419.0
421.0
424.0
428.0
433.0
438.0
444.0
450.0
457.0
462.0
466.0
469.0
472.0
474.0
474.0
474.0
474.0
472.0
471.0
469.0
467.0
465.0
463.0
462.0
461.0
460.0
459.0
457.0
457.0
456.0
454.0
453.0
452.0
451.0
450.0
449.0
449.0
448.0
448.0
448.0
449.0
450.0
449.0
450.0
451.0
452.0
452.0
451.0
452.0
452.0
451.0
450.0
450.0
448.0
447.0
445.0
445.0
443.0
442.0
440.0
439.0
438.0
437.0
435.0
434.0
434.0
433.0
431.0
431.0
429.0
429.0
428.0
427.0
426.0
425.0
425.0
425.0
424.0
424.0
423.0
423.0
423.0
422.0
422.0
422.0
422.0
421.0
421.0
421.0
421.0
421.0
419.0
419.0
419.0
418.0
417.0
417.0
417.0
417.0
417.0
420.0
423.0
428.0
433.0
440.0
447.0
453.0
458.0
464.0
468.0
472.0
474.0
475.0
476.0
476.0
474.0
473.0
471.0
469.0
467.0
466.0
464.0
462.0
461.0
460.0
460.0
459.0
457.0
457.0
456.0
454.0
453.0
452.0
451.0
450.0
449.0
449.0
450.0
450.0
450.0
451.0
451.0
452.0
452.0
453.0
454.0
454.0
454.0
453.0
453.0
452.0
451.0
450.0
450.0
448.0
446.0
446.0
445.0
443.0
441.0
441.0
439.0
438.0
437.0
436.0
434.0
434.0
432.0
432.0
431.0
430.0
429.0
428.0
428.0
428.0
427.0
426.0
426.0
426.0
425.0
425.0
424.0
424.0
423.0
424.0
423.0
422.0
422.0
421.0
421.0
421.0
420.0
419.0
419.0
420.0
420.0
422.0
425.0
430.0
435.0
441.0
448.0
453.0
459.0
464.0
469.0
472.0
474.0
475.0
476.0
476.0
475.0
474.0
471.0
469.0
467.0
465.0
464.0
461.0
460.0
458.0
457.0
456.0
454.0
453.0
452.0
450.0
449.0
448.0
446.0
446.0
446.0
447.0
447.0
448.0
449.0
450.0
451.0
452.0
452.0
453.0
454.0
454.0
454.0
454.0
453.0
453.0
452.0
452.0
450.0
449.0
447.0
447.0
445.0
444.0
443.0
442.0
441.0
440.0
439.0
438.0
436.0
435.0
435.0
435.0
434.0
433.0
432.0
432.0
431.0
431.0
430.0
430.0
430.0
429.0
429.0
428.0
427.0
428.0
427.0
427.0
426.0
426.0
425.0
426.0
426.0
428.0
430.0
435.0
440.0
446.0
452.0
459.0
464.0
469.0
474.0
478.0
481.0
482.0
482.0
483.0
482.0
481.0
479.0
477.0
475.0
473.0
471.0
470.0
467.0
465.0
464.0
463.0
462.0
459.0
458.0
456.0
454.0
452.0
451.0
451.0
451.0
451.0
452.0
452.0
453.0
454.0
455.0
456.0
457.0
457.0
457.0
458.0
458.0
457.0
456.0
457.0
456.0
455.0
453.0
452.0
451.0
449.0
447.0
446.0
445.0
444.0
442.0
442.0
440.0
439.0
438.0
437.0
436.0
435.0
434.0
434.0
433.0
432.0
430.0
430.0
430.0
429.0
429.0
429.0
428.0
427.0
426.0
426.0
426.0
425.0
424.0
424.0
424.0
424.0
424.0
427.0
430.0
435.0
440.0
447.0
454.0
461.0
467.0
473.0
477.0
481.0
483.0
485.0
486.0
486.0
485.0
484.0
482.0
481.0
477.0
476.0
474.0
472.0
470.0
469.0
468.0
467.0
465.0
464.0
462.0
461.0
459.0
458.0
458.0
456.0
455.0
455.0
456.0
456.0
457.0
457.0
458.0
459.0
460.0
460.0
461.0
461.0
461.0
461.0
461.0
459.0
457.0
457.0
456.0
454.0
453.0
452.0
450.0
449.0
447.0
447.0
445.0
443.0
442.0
441.0
440.0
438.0
437.0
436.0
435.0
434.0
433.0
433.0
432.0
431.0
430.0
430.0
429.0
429.0
428.0
428.0
427.0
426.0
425.0
424.0
424.0
424.0
424.0
426.0
429.0
434.0
439.0
445.0
452.0
459.0
466.0
472.0
477.0
481.0
484.0
486.0
487.0
487.0
486.0
485.0
484.0
482.0
479.0
478.0
476.0
474.0
472.0
471.0
469.0
468.0
467.0
466.0
465.0
463.0
461.0
460.0
458.0
457.0
456.0
456.0
455.0
456.0
456.0
457.0
456.0
457.0
457.0
458.0
458.0
458.0
458.0
458.0
457.0
457.0
455.0
454.0
453.0
452.0
451.0
449.0
447.0
446.0
444.0
443.0
442.0
440.0
439.0
438.0
437.0
436.0
434.0
433.0
432.0
431.0
430.0
429.0
428.0
427.0
427.0
426.0
425.0
425.0
424.0
424.0
423.0
422.0
421.0
420.0
420.0
419.0
418.0
418.0
419.0
420.0
423.0
427.0
432.0
438.0
445.0
452.0
458.0
463.0
468.0
473.0
475.0
477.0
477.0
477.0
477.0
475.0
474.0
472.0
469.0
468.0
466.0
465.0
463.0
461.0
460.0
459.0
458.0
457.0
455.0
454.0
452.0
451.0
450.0
449.0
448.0
448.0
447.0
448.0
448.0
449.0
449.0
450.0
450.0
450.0
451.0
451.0
451.0
450.0
449.0
449.0
448.0
447.0
445.0
444.0
443.0
442.0
440.0
440.0
438.0
436.0
435.0
434.0
433.0
431.0
430.0
429.0
428.0
427.0
426.0
425.0
425.0
424.0
423.0
423.0
422.0
421.0
420.0
420.0
420.0
419.0
417.0
417.0
416.0
416.0
415.0
415.0
415.0
416.0
417.0
420.0
423.0
428.0
433.0
440.0
446.0
451.0
455.0
460.0
464.0
466.0
467.0
468.0
468.0
467.0
465.0
464.0
462.0
460.0
458.0
457.0
455.0
453.0
451.0
450.0
449.0
447.0
446.0
444.0
442.0
441.0
440.0
440.0
439.0
439.0
438.0
439.0
440.0
441.0
441.0
442.0
443.0
443.0
444.0
443.0
443.0
443.0
442.0
441.0
440.0
439.0
437.0
437.0
436.0
435.0
433.0
432.0
431.0
430.0
428.0
427.0
426.0
425.0
423.0
422.0
421.0
420.0
419.0
418.0
418.0
417.0
416.0
415.0
415.0
414.0
413.0
412.0
412.0
412.0
411.0
410.0
409.0
408.0
407.0
407.0
407.0
406.0
407.0
409.0
412.0
416.0
419.0
425.0
430.0
435.0
440.0
443.0
447.0
450.0
451.0
452.0
452.0
451.0
450.0
449.0
448.0
446.0
444.0
444.0
442.0
441.0
439.0
438.0
437.0
436.0
435.0
433.0
432.0
431.0
429.0
428.0
428.0
427.0
427.0
428.0
428.0
429.0
429.0
430.0
431.0
431.0
431.0
431.0
431.0
431.0
430.0
430.0
429.0
427.0
426.0
426.0
425.0
424.0
422.0
421.0
420.0
419.0
418.0
417.0
416.0
415.0
414.0
413.0
411.0
411.0
410.0
410.0
409.0
408.0
407.0
407.0
407.0
406.0
405.0
406.0
405.0
405.0
404.0
403.0
403.0
402.0
402.0
402.0
401.0
400.0
400.0
400.0
400.0
401.0
402.0
405.0
409.0
414.0
418.0
423.0
428.0
432.0
436.0
438.0
440.0
441.0
442.0
442.0
441.0
441.0
440.0
439.0
437.0
436.0
435.0
434.0
433.0
432.0
431.0
431.0
430.0
430.0
428.0
427.0
426.0
426.0
425.0
425.0
425.0
424.0
424.0
425.0
425.0
425.0
425.0
426.0
427.0
427.0
427.0
427.0
427.0
427.0
426.0
426.0
425.0
424.0
423.0
423.0
422.0
420.0
419.0
419.0
418.0
417.0
416.0
416.0
415.0
414.0
413.0
413.0
412.0
411.0
411.0
411.0
410.0
408.0
408.0
408.0
408.0
408.0
407.0
407.0
406.0
406.0
406.0
406.0
405.0
405.0
405.0
404.0
404.0
403.0
402.0
403.0
402.0
402.0
401.0
401.0
401.0
401.0
402.0
403.0
406.0
411.0
415.0
420.0
424.0
428.0
431.0
434.0
437.0
438.0
438.0
438.0
438.0
437.0
436.0
435.0
434.0
433.0
431.0
431.0
429.0
428.0
427.0
428.0
428.0
426.0
425.0
425.0
424.0
423.0
422.0
422.0
422.0
422.0
421.0
422.0
421.0
421.0
422.0
423.0
424.0
424.0
424.0
424.0
424.0
424.0
424.0
423.0
423.0
422.0
421.0
421.0
420.0
419.0
418.0
418.0
417.0
417.0
415.0
415.0
414.0
414.0
412.0
412.0
412.0
411.0
410.0
409.0
409.0
408.0
407.0
407.0
407.0
407.0
405.0
406.0
405.0
405.0
405.0
404.0
404.0
404.0
403.0
403.0
403.0
403.0
402.0
403.0
402.0
401.0
401.0
400.0
400.0
400.0
399.0
399.0
399.0
399.0
399.0
401.0
404.0
408.0
412.0
418.0
422.0
426.0
429.0
432.0
434.0
435.0
435.0
436.0
436.0
435.0
434.0
433.0
432.0
431.0
429.0
429.0
428.0
427.0
426.0
426.0
425.0
424.0
423.0
423.0
422.0
422.0
421.0
421.0
420.0
420.0
420.0
420.0
420.0
421.0
421.0
422.0
422.0
423.0
423.0
423.0
424.0
423.0
423.0
423.0
422.0
422.0
420.0
420.0
420.0
419.0
418.0
417.0
416.0
416.0
414.0
414.0
413.0
413.0
411.0
411.0
411.0
410.0
409.0
409.0
408.0
408.0
407.0
407.0
406.0
406.0
405.0
405.0
404.0
404.0
404.0
404.0
403.0
403.0
403.0
403.0
403.0
402.0
402.0
402.0
401.0
401.0
401.0
401.0
400.0
400.0
400.0
399.0
399.0
399.0
400.0
403.0
405.0
410.0
414.0
419.0
423.0
427.0
430.0
433.0
435.0
437.0
437.0
437.0
437.0
436.0
436.0
435.0
434.0
433.0
431.0
430.0
430.0
429.0
428.0
428.0
427.0
427.0
425.0
425.0
424.0
423.0
423.0
423.0
423.0
423.0
423.0
424.0
424.0
424.0
425.0
426.0
427.0
427.0
428.0
429.0
429.0
429.0
428.0
428.0
428.0
427.0
427.0
426.0
426.0
425.0
424.0
424.0
423.0
422.0
422.0
422.0
421.0
420.0
419.0
419.0
418.0
417.0
417.0
416.0
416.0
415.0
415.0
415.0
414.0
413.0
413.0
414.0
413.0
412.0
412.0
413.0
412.0
412.0
411.0
412.0
412.0
411.0
410.0
411.0
410.0
410.0
409.0
410.0
409.0
408.0
408.0
409.0
410.0
411.0
413.0
417.0
422.0
426.0
430.0
434.0
438.0
441.0
443.0
445.0
446.0
447.0
446.0
447.0
446.0
445.0
443.0
442.0
441.0
440.0
438.0
438.0
437.0
436.0
435.0
434.0
433.0
432.0
431.0
431.0
431.0
430.0
429.0
430.0
431.0
431.0
432.0
433.0
434.0
435.0
436.0
437.0
438.0
438.0
438.0
439.0
439.0
439.0
438.0
438.0
438.0
437.0
436.0
436.0
435.0
435.0
434.0
433.0
432.0
431.0
431.0
430.0
429.0
429.0
428.0
428.0
427.0
427.0
426.0
426.0
426.0
425.0
425.0
424.0
424.0
423.0
423.0
423.0
423.0
422.0
422.0
422.0
422.0
421.0
420.0
421.0
421.0
420.0
420.0
420.0
420.0
421.0
423.0
427.0
430.0
435.0
439.0
444.0
448.0
453.0
455.0
458.0
461.0
462.0
463.0
464.0
464.0
463.0
462.0
462.0
461.0
459.0
458.0
457.0
456.0
455.0
454.0
452.0
452.0
451.0
449.0
449.0
447.0
446.0
446.0
446.0
446.0
446.0
446.0
447.0
447.0
448.0
450.0
451.0
452.0
453.0
453.0
454.0
454.0
454.0
454.0
454.0
454.0
453.0
452.0
451.0
450.0
450.0
449.0
449.0
448.0
446.0
446.0
445.0
444.0
443.0
442.0
441.0
441.0
440.0
440.0
439.0
438.0
438.0
437.0
436.0
436.0
435.0
434.0
434.0
434.0
433.0
433.0
433.0
432.0
432.0
431.0
431.0
430.0
430.0
430.0
430.0
431.0
433.0
435.0
439.0
444.0
449.0
454.0
459.0
463.0
467.0
470.0
473.0
475.0
475.0
476.0
476.0
475.0
475.0
473.0
471.0
470.0
468.0
467.0
466.0
464.0
463.0
462.0
461.0
460.0
459.0
457.0
457.0
455.0
455.0
453.0
453.0
452.0
452.0
452.0
453.0
453.0
454.0
455.0
456.0
456.0
456.0
456.0
457.0
456.0
456.0
456.0
455.0
454.0
454.0
453.0
452.0
450.0
450.0
449.0
447.0
446.0
445.0
443.0
443.0
442.0
441.0
439.0
438.0
437.0
436.0
436.0
435.0
434.0
433.0
432.0
432.0
431.0
430.0
429.0
430.0
429.0
428.0
427.0
426.0
425.0
425.0
424.0
424.0
424.0
424.0
425.0
427.0
430.0
434.0
438.0
444.0
448.0
453.0
457.0
461.0
464.0
465.0
466.0
468.0
468.0
467.0
466.0
465.0
464.0
462.0
460.0
459.0
457.0
456.0
454.0
454.0
452.0
451.0
450.0
449.0
448.0
446.0
445.0
445.0
444.0
443.0
443.0
443.0
443.0
444.0
444.0
445.0
445.0
446.0
446.0
447.0
447.0
447.0
447.0
447.0
447.0
445.0
444.0
444.0
444.0
442.0
441.0
440.0
439.0
438.0
437.0
437.0
435.0
434.0
433.0
433.0
432.0
430.0
429.0
429.0
429.0
428.0
426.0
426.0
426.0
425.0
424.0
424.0
424.0
423.0
423.0
423.0
422.0
421.0
421.0
421.0
421.0
420.0
419.0
419.0
419.0
420.0
422.0
424.0
428.0
433.0
438.0
443.0
448.0
453.0
456.0
460.0
463.0
465.0
465.0
466.0
466.0
465.0
464.0
464.0
462.0
460.0
459.0
457.0
456.0
454.0
453.0
453.0
452.0
451.0
450.0
449.0
448.0
447.0
446.0
446.0
445.0
445.0
445.0
445.0
446.0
446.0
447.0
448.0
449.0
450.0
449.0
450.0
450.0
450.0
450.0
450.0
449.0
449.0
448.0
447.0
446.0
445.0
444.0
444.0
443.0
442.0
440.0
440.0
439.0
438.0
437.0
436.0
436.0
435.0
433.0
433.0
433.0
431.0
431.0
431.0
430.0
430.0
429.0
429.0
429.0
429.0
428.0
427.0
427.0
427.0
426.0
426.0
426.0
425.0
425.0
425.0
426.0
428.0
429.0
433.0
437.0
442.0
447.0
452.0
456.0
460.0
463.0
466.0
469.0
469.0
470.0
470.0
470.0
469.0
468.0
466.0
464.0
463.0
461.0
460.0
458.0
457.0
456.0
455.0
454.0
453.0
451.0
450.0
449.0
449.0
448.0
447.0
447.0
448.0
448.0
449.0
450.0
451.0
452.0
453.0
453.0
453.0
454.0
454.0
454.0
454.0
453.0
453.0
452.0
451.0
450.0
449.0
448.0
447.0
446.0
445.0
445.0
443.0
442.0
442.0
440.0
440.0
439.0
438.0
437.0
436.0
436.0
435.0
434.0
434.0
433.0
433.0
432.0
432.0
431.0
431.0
431.0
431.0
430.0
429.0
429.0
428.0
428.0
428.0
427.0
427.0
428.0
430.0
432.0
436.0
440.0
445.0
450.0
455.0
459.0
463.0
466.0
468.0
470.0
471.0
471.0
470.0
470.0
469.0
467.0
465.0
463.0
462.0
461.0
459.0
457.0
456.0
455.0
453.0
452.0
451.0
449.0
448.0
447.0
447.0
446.0
446.0
446.0
447.0
448.0
448.0
449.0
450.0
451.0
451.0
452.0
452.0
452.0
452.0
452.0
452.0
451.0
450.0
449.0
449.0
448.0
447.0
445.0
445.0
444.0
443.0
442.0
441.0
440.0
439.0
438.0
437.0
436.0
435.0
435.0
434.0
434.0
433.0
432.0
432.0
431.0
431.0
430.0
430.0
429.0
429.0
428.0
429.0
428.0
427.0
427.0
427.0
427.0
426.0
425.0
426.0
427.0
427.0
429.0
433.0
438.0
442.0
447.0
453.0
458.0
462.0
466.0
470.0
472.0
474.0
474.0
474.0
474.0
473.0
472.0
471.0
469.0
468.0
466.0
465.0
464.0
463.0
461.0
460.0
460.0
458.0
457.0
456.0
455.0
453.0
453.0
453.0
452.0
452.0
452.0
453.0
453.0
454.0
454.0
455.0
457.0
457.0
457.0
457.0
457.0
457.0
457.0
457.0
456.0
455.0
454.0
453.0
452.0
450.0
449.0
448.0
447.0
447.0
445.0
444.0
443.0
442.0
441.0
440.0
439.0
439.0
437.0
437.0
436.0
435.0
434.0
434.0
434.0
433.0
433.0
432.0
432.0
432.0
431.0
431.0
431.0
430.0
430.0
430.0
430.0
428.0
427.0
427.0
427.0
427.0
427.0
427.0
428.0
430.0
434.0
439.0
443.0
449.0
454.0
460.0
465.0
469.0
472.0
475.0
477.0
478.0
478.0
477.0
476.0
475.0
473.0
472.0
471.0
469.0
467.0
466.0
464.0
464.0
462.0
461.0
460.0
459.0
458.0
456.0
455.0
454.0
453.0
453.0
453.0
454.0
454.0
454.0
454.0
455.0
456.0
457.0
457.0
457.0
457.0
458.0
457.0
457.0
456.0
456.0
455.0
454.0
453.0
452.0
451.0
450.0
448.0
447.0
446.0
445.0
443.0
443.0
441.0
441.0
439.0
438.0
437.0
436.0
436.0
434.0
433.0
433.0
432.0
432.0
432.0
430.0
430.0
430.0
429.0
429.0
428.0
428.0
427.0
427.0
427.0
427.0
426.0
426.0
425.0
425.0
424.0
423.0
423.0
422.0
422.0
422.0
423.0
426.0
429.0
433.0
439.0
445.0
450.0
456.0
462.0
467.0
470.0
473.0
475.0
477.0
477.0
477.0
475.0
475.0
473.0
471.0
469.0
467.0
466.0
464.0
463.0
462.0
461.0
459.0
458.0
458.0
457.0
455.0
454.0
453.0
453.0
452.0
451.0
452.0
451.0
452.0
452.0
454.0
454.0
454.0
455.0
456.0
455.0
456.0
456.0
456.0
455.0
455.0
454.0
453.0
452.0
451.0
450.0
449.0
448.0
447.0
445.0
444.0
443.0
442.0
441.0
440.0
438.0
437.0
436.0
436.0
435.0
434.0
432.0
432.0
432.0
431.0
430.0
430.0
429.0
429.0
428.0
428.0
428.0
427.0
427.0
427.0
426.0
426.0
425.0
425.0
425.0
424.0
423.0
423.0
423.0
422.0
422.0
423.0
425.0
428.0
432.0
437.0
443.0
449.0
454.0
460.0
465.0
469.0
471.0
474.0
475.0
476.0
475.0
474.0
473.0
472.0
469.0
467.0
465.0
464.0
461.0
460.0
459.0
457.0
455.0
454.0
453.0
451.0
449.0
448.0
447.0
447.0
446.0
446.0
446.0
447.0
447.0
449.0
449.0
450.0
451.0
452.0
453.0
453.0
453.0
453.0
453.0
453.0
452.0
451.0
451.0
450.0
448.0
447.0
447.0
446.0
444.0
443.0
442.0
440.0
439.0
438.0
437.0
436.0
435.0
434.0
433.0
432.0
431.0
430.0
430.0
429.0
428.0
428.0
427.0
426.0
426.0
426.0
426.0
425.0
424.0
424.0
424.0
423.0
422.0
422.0
422.0
422.0
421.0
421.0
421.0
423.0
426.0
430.0
436.0
441.0
447.0
453.0
459.0
464.0
468.0
471.0
474.0
476.0
476.0
476.0
475.0
474.0
472.0
471.0
469.0
467.0
464.0
463.0
461.0
459.0
457.0
455.0
454.0
453.0
451.0
449.0
447.0
446.0
445.0
445.0
445.0
445.0
445.0
446.0
447.0
449.0
450.0
451.0
452.0
453.0
453.0
454.0
453.0
454.0
454.0
454.0
453.0
452.0
451.0
450.0
449.0
448.0
446.0
445.0
444.0
443.0
442.0
441.0
439.0
438.0
437.0
437.0
436.0
435.0
434.0
433.0
432.0
432.0
431.0
431.0
430.0
430.0
429.0
429.0
428.0
428.0
427.0
427.0
426.0
425.0
425.0
425.0
424.0
424.0
424.0
426.0
428.0
432.0
437.0
443.0
449.0
456.0
462.0
468.0
473.0
477.0
480.0
483.0
483.0
484.0
483.0
483.0
482.0
480.0
478.0
476.0
474.0
472.0
470.0
468.0
467.0
465.0
464.0
462.0
461.0
459.0
457.0
457.0
455.0
454.0
453.0
453.0
453.0
453.0
454.0
454.0
455.0
456.0
457.0
458.0
459.0
459.0
459.0
459.0
459.0
459.0
458.0
458.0
457.0
455.0
454.0
454.0
452.0
450.0
449.0
448.0
447.0
445.0
444.0
443.0
442.0
440.0
439.0
439.0
437.0
436.0
435.0
435.0
434.0
433.0
432.0
432.0
431.0
430.0
429.0
430.0
429.0
429.0
428.0
428.0
427.0
426.0
426.0
426.0
425.0
424.0
424.0
425.0
426.0
428.0
431.0
436.0
442.0
448.0
455.0
461.0
467.0
473.0
477.0
482.0
484.0
485.0
486.0
486.0
485.0
483.0
482.0
480.0
478.0
476.0
473.0
472.0
470.0
468.0
466.0
465.0
463.0
462.0
460.0
459.0
457.0
455.0
454.0
454.0
454.0
453.0
453.0
454.0
454.0
455.0
456.0
457.0
458.0
458.0
459.0
459.0
459.0
459.0
458.0
459.0
458.0
456.0
455.0
454.0
453.0
452.0
450.0
449.0
448.0
447.0
445.0
444.0
442.0
441.0
440.0
439.0
438.0
437.0
435.0
435.0
434.0
432.0
431.0
430.0
430.0
429.0
428.0
427.0
427.0
427.0
426.0
425.0
426.0
425.0
424.0
424.0
423.0
422.0
421.0
422.0
422.0
422.0
424.0
428.0
432.0
438.0
444.0
451.0
458.0
464.0
470.0
475.0
479.0
482.0
484.0
485.0
485.0
484.0
483.0
481.0
479.0
477.0
474.0
472.0
471.0
469.0
466.0
465.0
463.0
462.0
460.0
459.0
457.0
455.0
454.0
453.0
452.0
451.0
451.0
451.0
452.0
453.0
453.0
455.0
455.0
457.0
457.0
458.0
459.0
459.0
459.0
459.0
458.0
458.0
457.0
456.0
455.0
454.0
452.0
451.0
450.0
449.0
447.0
446.0
444.0
443.0
442.0
441.0
439.0
438.0
437.0
436.0
435.0
434.0
433.0
432.0
431.0
430.0
429.0
429.0
428.0
427.0
426.0
426.0
425.0
425.0
423.0
423.0
422.0
421.0
421.0
420.0
420.0
420.0
421.0
423.0
426.0
431.0
437.0
444.0
451.0
457.0
464.0
470.0
475.0
479.0
481.0
483.0
484.0
484.0
483.0
482.0
480.0
478.0
475.0
473.0
470.0
468.0
466.0
464.0
462.0
460.0
458.0
457.0
455.0
452.0
451.0
450.0
449.0
447.0
447.0
446.0
446.0
447.0
447.0
449.0
450.0
451.0
452.0
453.0
454.0
454.0
455.0
456.0
454.0
454.0
453.0
453.0
451.0
450.0
449.0
447.0
446.0
445.0
443.0
442.0
441.0
440.0
438.0
437.0
436.0
434.0
433.0
432.0
431.0
430.0
429.0
428.0
427.0
426.0
425.0
425.0
425.0
423.0
423.0
423.0
423.0
422.0
421.0
421.0
420.0
419.0
419.0
418.0
418.0
418.0
418.0
419.0
421.0
424.0
428.0
435.0
442.0
448.0
455.0
462.0
467.0
472.0
476.0
479.0
480.0
481.0
481.0
480.0
479.0
476.0
474.0
472.0
470.0
467.0
464.0
462.0
460.0
458.0
456.0
454.0
451.0
450.0
447.0
446.0
445.0
444.0
443.0
443.0
444.0
444.0
445.0
446.0
447.0
448.0
449.0
451.0
452.0
452.0
453.0
453.0
454.0
452.0
452.0
452.0
451.0
450.0
448.0
447.0
446.0
445.0
444.0
443.0
442.0
440.0
438.0
438.0
436.0
435.0
433.0
433.0
432.0
431.0
429.0
429.0
428.0
427.0
426.0
425.0
425.0
424.0
424.0
423.0
422.0
421.0
421.0
420.0
420.0
421.0
420.0
422.0
426.0
430.0
436.0
442.0
450.0
457.0
463.0
470.0
475.0
479.0
482.0
484.0
486.0
486.0
484.0
484.0
482.0
480.0
477.0
475.0
473.0
470.0
468.0
466.0
464.0
462.0
459.0
457.0
456.0
454.0
451.0
450.0
449.0
448.0
448.0
447.0
448.0
449.0
450.0
451.0
453.0
454.0
455.0
457.0
457.0
458.0
458.0
458.0
458.0
458.0
457.0
456.0
455.0
454.0
452.0
452.0
450.0
449.0
447.0
446.0
445.0
443.0
442.0
441.0
440.0
439.0
438.0
436.0
435.0
435.0
434.0
433.0
432.0
431.0
430.0
430.0
430.0
428.0
428.0
427.0
425.0
426.0
425.0
425.0
425.0
426.0
428.0
432.0
437.0
444.0
451.0
459.0
466.0
472.0
478.0
484.0
488.0
491.0
493.0
494.0
495.0
494.0
493.0
491.0
489.0
487.0
485.0
483.0
481.0
479.0
477.0
476.0
474.0
472.0
470.0
468.0
466.0
465.0
463.0
462.0
461.0
460.0
461.0
460.0
461.0
462.0
463.0
464.0
465.0
465.0
466.0
467.0
468.0
468.0
468.0
468.0
467.0
467.0
466.0
465.0
463.0
462.0
461.0
460.0
458.0
457.0
456.0
454.0
453.0
451.0
450.0
450.0
448.0
447.0
446.0
445.0
444.0
443.0
443.0
442.0
441.0
440.0
439.0
439.0
438.0
437.0
436.0
436.0
435.0
435.0
434.0
436.0
437.0
441.0
445.0
451.0
458.0
465.0
472.0
480.0
486.0
491.0
495.0
499.0
501.0
502.0
502.0
502.0
501.0
500.0
498.0
496.0
494.0
492.0
491.0
490.0
488.0
486.0
484.0
483.0
482.0
479.0
477.0
477.0
475.0
474.0
472.0
472.0
472.0
472.0
472.0
473.0
474.0
474.0
475.0
476.0
476.0
477.0
477.0
477.0
477.0
476.0
475.0
474.0
473.0
472.0
470.0
469.0
468.0
466.0
464.0
463.0
461.0
460.0
458.0
457.0
456.0
455.0
453.0
452.0
451.0
450.0
448.0
447.0
447.0
446.0
445.0
445.0
444.0
443.0
442.0
441.0
441.0
439.0
438.0
438.0
438.0
438.0
438.0
441.0
445.0
450.0
456.0
462.0
469.0
477.0
483.0
489.0
494.0
499.0
501.0
504.0
505.0
505.0
504.0
504.0
503.0
501.0
499.0
498.0
496.0
495.0
492.0
491.0
490.0
489.0
487.0
485.0
484.0
482.0
480.0
479.0
477.0
476.0
476.0
476.0
475.0
476.0
475.0
477.0
478.0
478.0
479.0
479.0
479.0
479.0
479.0
478.0
478.0
477.0
476.0
475.0
473.0
472.0
470.0
469.0
467.0
466.0
464.0
463.0
461.0
460.0
458.0
457.0
455.0
454.0
453.0
452.0
451.0
449.0
448.0
448.0
447.0
446.0
445.0
444.0
443.0
442.0
441.0
441.0
440.0
439.0
438.0
438.0
437.0
437.0
438.0
441.0
444.0
450.0
455.0
462.0
469.0
476.0
483.0
488.0
494.0
497.0
501.0
503.0
504.0
504.0
504.0
503.0
502.0
500.0
498.0
497.0
495.0
494.0
492.0
491.0
489.0
488.0
486.0
485.0
482.0
480.0
479.0
478.0
477.0
475.0
475.0
474.0
475.0
475.0
475.0
476.0
477.0
477.0
478.0
478.0
478.0
478.0
477.0
478.0
476.0
475.0
474.0
473.0
471.0
470.0
469.0
467.0
466.0
464.0
462.0
461.0
459.0
458.0
456.0
455.0
454.0
452.0
451.0
450.0
448.0
447.0
447.0
446.0
445.0
444.0
443.0
443.0
442.0
441.0
440.0
439.0
438.0
438.0
437.0
436.0
436.0
435.0
435.0
436.0
437.0
440.0
444.0
449.0
455.0
462.0
468.0
475.0
481.0
486.0
490.0
493.0
495.0
496.0
497.0
497.0
495.0
494.0
493.0
491.0
489.0
487.0
485.0
484.0
482.0
480.0
478.0
476.0
474.0
472.0
470.0
469.0
467.0
466.0
465.0
465.0
465.0
466.0
466.0
467.0
469.0
469.0
469.0
471.0
471.0
471.0
470.0
470.0
470.0
469.0
468.0
467.0
466.0
464.0
463.0
462.0
461.0
459.0
458.0
457.0
455.0
453.0
452.0
451.0
450.0
449.0
447.0
446.0
445.0
444.0
443.0
442.0
441.0
441.0
439.0
440.0
438.0
438.0
437.0
437.0
437.0
436.0
435.0
435.0
434.0
434.0
433.0
432.0
432.0
431.0
431.0
432.0
434.0
437.0
441.0
447.0
454.0
461.0
467.0
474.0
481.0
486.0
489.0
493.0
495.0
496.0
496.0
496.0
495.0
493.0
491.0
490.0
489.0
487.0
485.0
483.0
483.0
481.0
479.0
478.0
476.0
475.0
472.0
471.0
470.0
468.0
467.0
467.0
467.0
467.0
467.0
468.0
469.0
469.0
470.0
470.0
470.0
470.0
470.0
470.0
469.0
468.0
467.0
465.0
464.0
463.0
461.0
460.0
458.0
457.0
455.0
454.0
452.0
451.0
449.0
448.0
446.0
444.0
443.0
442.0
441.0
440.0
438.0
437.0
436.0
435.0
434.0
434.0
433.0
432.0
431.0
431.0
431.0
429.0
429.0
429.0
428.0
428.0
426.0
426.0
425.0
424.0
423.0
422.0
422.0
421.0
421.0
423.0
424.0
428.0
433.0
439.0
446.0
452.0
458.0
464.0
469.0
474.0
477.0
479.0
481.0
482.0
482.0
480.0
479.0
478.0
476.0
475.0
473.0
472.0
471.0
470.0
468.0
467.0
466.0
465.0
463.0
462.0
459.0
458.0
457.0
455.0
454.0
454.0
453.0
453.0
453.0
454.0
454.0
454.0
454.0
455.0
455.0
455.0
454.0
453.0
453.0
452.0
451.0
449.0
448.0
447.0
445.0
444.0
443.0
441.0
440.0
439.0
437.0
436.0
434.0
433.0
431.0
430.0
429.0
428.0
427.0
426.0
425.0
424.0
422.0
421.0
421.0
421.0
420.0
419.0
418.0
418.0
417.0
417.0
416.0
416.0
416.0
415.0
414.0
414.0
413.0
413.0
412.0
412.0
410.0
409.0
408.0
408.0
407.0
407.0
407.0
408.0
410.0
413.0
418.0
423.0
430.0
436.0
442.0
448.0
452.0
455.0
458.0
461.0
462.0
462.0
462.0
462.0
460.0
459.0
457.0
455.0
454.0
452.0
451.0
450.0
449.0
448.0
446.0
446.0
445.0
442.0
441.0
440.0
439.0
438.0
437.0
437.0
436.0
437.0
437.0
437.0
438.0
438.0
439.0
440.0
439.0
439.0
439.0
439.0
439.0
437.0
437.0
436.0
435.0
434.0
433.0
431.0
431.0
429.0
428.0
427.0
425.0
424.0
422.0
421.0
420.0
419.0
417.0
417.0
415.0
414.0
413.0
413.0
412.0
411.0
410.0
410.0
409.0
408.0
407.0
407.0
407.0
406.0
405.0
405.0
405.0
405.0
404.0
404.0
404.0
404.0
403.0
403.0
401.0
401.0
400.0
400.0
399.0
398.0
397.0
397.0
398.0
399.0
401.0
405.0
411.0
416.0
421.0
427.0
432.0
437.0
440.0
444.0
446.0
448.0
449.0
449.0
448.0
447.0
445.0
444.0
443.0
441.0
439.0
437.0
436.0
434.0
433.0
432.0
431.0
430.0
428.0
427.0
425.0
424.0
423.0
423.0
423.0
422.0
422.0
423.0
424.0
424.0
425.0
425.0
426.0
427.0
427.0
427.0
427.0
427.0
426.0
426.0
425.0
424.0
423.0
422.0
421.0
420.0
419.0
418.0
417.0
415.0
414.0
413.0
412.0
410.0
409.0
409.0
407.0
407.0
405.0
405.0
404.0
404.0
402.0
402.0
401.0
400.0
400.0
399.0
399.0
399.0
398.0
399.0
398.0
398.0
398.0
398.0
397.0
397.0
396.0
395.0
395.0
395.0
394.0
394.0
393.0
393.0
394.0
396.0
399.0
403.0
408.0
413.0
418.0
424.0
428.0
433.0
437.0
440.0
441.0
442.0
443.0
443.0
442.0
442.0
439.0
438.0
437.0
435.0
433.0
431.0
429.0
428.0
427.0
426.0
424.0
423.0
421.0
420.0
419.0
417.0
417.0
416.0
416.0
417.0
417.0
417.0
418.0
419.0
420.0
421.0
422.0
423.0
423.0
423.0
423.0
423.0
423.0
423.0
422.0
421.0
420.0
419.0
418.0
417.0
416.0
415.0
413.0
412.0
411.0
410.0
409.0
408.0
407.0
406.0
405.0
405.0
403.0
402.0
402.0
401.0
400.0
400.0
399.0
398.0
398.0
397.0
397.0
397.0
396.0
396.0
396.0
395.0
395.0
395.0
395.0
395.0
393.0
393.0
393.0
393.0
393.0
392.0
392.0
394.0
397.0
401.0
405.0
411.0
417.0
422.0
428.0
433.0
437.0
440.0
443.0
445.0
446.0
445.0
445.0
445.0
444.0
442.0
441.0
439.0
437.0
435.0
434.0
433.0
431.0
429.0
428.0
427.0
426.0
423.0
422.0
421.0
420.0
419.0
419.0
418.0
419.0
419.0
419.0
421.0
421.0
422.0
422.0
424.0
424.0
425.0
425.0
426.0
426.0
425.0
425.0
424.0
424.0
423.0
421.0
421.0
420.0
418.0
417.0
416.0
415.0
413.0
412.0
411.0
411.0
409.0
408.0
407.0
406.0
405.0
404.0
404.0
403.0
402.0
401.0
400.0
400.0
399.0
398.0
398.0
398.0
398.0
397.0
396.0
396.0
396.0
395.0
395.0
394.0
394.0
393.0
393.0
393.0
393.0
394.0
397.0
400.0
404.0
410.0
416.0
422.0
428.0
434.0
439.0
444.0
447.0
449.0
452.0
453.0
453.0
452.0
452.0
450.0
449.0
447.0
445.0
443.0
442.0
440.0
439.0
437.0
436.0
434.0
433.0
432.0
430.0
428.0
427.0
427.0
426.0
425.0
424.0
424.0
425.0
425.0
426.0
427.0
428.0
429.0
430.0
430.0
431.0
431.0
432.0
432.0
431.0
430.0
430.0
429.0
429.0
427.0
426.0
426.0
425.0
423.0
422.0
421.0
420.0
418.0
417.0
416.0
415.0
414.0
413.0
412.0
411.0
409.0
409.0
408.0
407.0
406.0
405.0
405.0
404.0
403.0
402.0
402.0
402.0
401.0
400.0
400.0
399.0
398.0
398.0
398.0
398.0
397.0
397.0
399.0
402.0
406.0
412.0
417.0
423.0
429.0
435.0
441.0
445.0
448.0
451.0
453.0
454.0
454.0
453.0
453.0
452.0
450.0
447.0
446.0
444.0
441.0
439.0
437.0
436.0
434.0
432.0
431.0
429.0
427.0
425.0
424.0
423.0
421.0
421.0
421.0
421.0
421.0
422.0
423.0
424.0
425.0
426.0
427.0
428.0
428.0
429.0
429.0
429.0
429.0
429.0
428.0
428.0
426.0
426.0
424.0
423.0
422.0
421.0
420.0
419.0
418.0
416.0
415.0
414.0
412.0
412.0
410.0
410.0
409.0
408.0
407.0
406.0
406.0
405.0
404.0
404.0
403.0
403.0
402.0
401.0
400.0
401.0
400.0
400.0
399.0
399.0
400.0
401.0
403.0
408.0
413.0
419.0
425.0
432.0
437.0
443.0
447.0
451.0
454.0
456.0
457.0
457.0
457.0
456.0
455.0
453.0
452.0
449.0
447.0
445.0
443.0
442.0
439.0
438.0
436.0
434.0
432.0
431.0
429.0
427.0
426.0
427.0
425.0
426.0
426.0
427.0
427.0
428.0
430.0
431.0
432.0
433.0
434.0
435.0
436.0
436.0
436.0
436.0
436.0
435.0
435.0
434.0
433.0
432.0
431.0
431.0
429.0
428.0
427.0
426.0
425.0
423.0
422.0
422.0
420.0
420.0
419.0
418.0
417.0
416.0
415.0
415.0
414.0
413.0
412.0
412.0
411.0
410.0
409.0
409.0
408.0
407.0
407.0
409.0
410.0
414.0
417.0
424.0
430.0
437.0
443.0
449.0
454.0
459.0
462.0
466.0
467.0
468.0
468.0
467.0
466.0
465.0
462.0
462.0
460.0
457.0
455.0
454.0
452.0
451.0
448.0
447.0
445.0
443.0
441.0
440.0
439.0
437.0
436.0
436.0
436.0
436.0
437.0
437.0
438.0
439.0
440.0
442.0
442.0
443.0
443.0
444.0
444.0
443.0
442.0
442.0
442.0
441.0
439.0
438.0
437.0
436.0
435.0
434.0
433.0
432.0
430.0
429.0
428.0
427.0
425.0
425.0
424.0
423.0
421.0
421.0
421.0
420.0
419.0
418.0
417.0
417.0
415.0
415.0
413.0
413.0
412.0
413.0
413.0
415.0
417.0
422.0
428.0
434.0
440.0
447.0
454.0
460.0
464.0
468.0
472.0
473.0
474.0
475.0
475.0
474.0
472.0
471.0
470.0
467.0
465.0
464.0
462.0
460.0
458.0
457.0
455.0
454.0
452.0
450.0
449.0
447.0
445.0
444.0
443.0
443.0
442.0
443.0
444.0
443.0
444.0
445.0
446.0
447.0
447.0
448.0
448.0
448.0
447.0
447.0
446.0
446.0
444.0
443.0
442.0
441.0
440.0
438.0
437.0
435.0
434.0
433.0
432.0
431.0
430.0
428.0
427.0
426.0
425.0
425.0
424.0
423.0
422.0
421.0
420.0
419.0
418.0
418.0
417.0
416.0
416.0
416.0
416.0
417.0
420.0
424.0
429.0
436.0
442.0
449.0
456.0
462.0
467.0
471.0
475.0
477.0
478.0
479.0
478.0
478.0
477.0
476.0
473.0
471.0
470.0
468.0
466.0
465.0
463.0
462.0
460.0
459.0
457.0
455.0
453.0
452.0
450.0
450.0
449.0
448.0
448.0
449.0
449.0
449.0
450.0
451.0
452.0
453.0
454.0
453.0
454.0
453.0
453.0
453.0
452.0
451.0
450.0
449.0
447.0
446.0
445.0
444.0
442.0
442.0
440.0
438.0
437.0
436.0
435.0
433.0
432.0
431.0
430.0
429.0
428.0
426.0
426.0
425.0
423.0
423.0
422.0
421.0
420.0
420.0
419.0
421.0
422.0
424.0
428.0
434.0
440.0
446.0
453.0
459.0
465.0
470.0
474.0
477.0
479.0
480.0
479.0
480.0
479.0
477.0
476.0
474.0
472.0
470.0
468.0
467.0
465.0
463.0
461.0
460.0
458.0
455.0
453.0
453.0
451.0
450.0
449.0
449.0
449.0
449.0
450.0
451.0
452.0
453.0
454.0
455.0
455.0
455.0
455.0
456.0
456.0
455.0
454.0
453.0
452.0
451.0
449.0
449.0
447.0
446.0
444.0
443.0
442.0
440.0
439.0
439.0
438.0
436.0
435.0
435.0
434.0
432.0
431.0
430.0
430.0
429.0
428.0
427.0
426.0
425.0
424.0
424.0
423.0
423.0
423.0
424.0
426.0
428.0
432.0
438.0
444.0
450.0
457.0
463.0
468.0
473.0
476.0
479.0
481.0
481.0
481.0
481.0
480.0
477.0
475.0
475.0
472.0
471.0
468.0
467.0
466.0
464.0
462.0
461.0
459.0
457.0
455.0
454.0
452.0
451.0
450.0
450.0
450.0
449.0
449.0
451.0
451.0
451.0
451.0
452.0
453.0
452.0
452.0
451.0
451.0
450.0
448.0
447.0
446.0
444.0
443.0
442.0
440.0
438.0
436.0
435.0
434.0
433.0
431.0
429.0
429.0
427.0
425.0
425.0
424.0
422.0
421.0
420.0
420.0
418.0
417.0
416.0
416.0
415.0
414.0
413.0
412.0
411.0
410.0
411.0
410.0
411.0
413.0
417.0
421.0
426.0
431.0
437.0
443.0
448.0
452.0
455.0
458.0
460.0
460.0
460.0
460.0
458.0
457.0
455.0
453.0
451.0
449.0
448.0
447.0
445.0
444.0
443.0
442.0
440.0
438.0
436.0
435.0
434.0
432.0
431.0
430.0
430.0
429.0
429.0
429.0
429.0
429.0
430.0
430.0
431.0
429.0
430.0
429.0
429.0
428.0
426.0
425.0
425.0
423.0
422.0
421.0
420.0
418.0
418.0
416.0
414.0
413.0
412.0
411.0
410.0
408.0
407.0
406.0
406.0
405.0
404.0
404.0
403.0
402.0
402.0
401.0
400.0
399.0
399.0
399.0
398.0
397.0
397.0
396.0
395.0
394.0
393.0
392.0
392.0
392.0
392.0
393.0
395.0
398.0
402.0
407.0
412.0
416.0
422.0
426.0
430.0
433.0
435.0
437.0
439.0
440.0
440.0
439.0
439.0
438.0
438.0
438.0
437.0
437.0
437.0
437.0
437.0
436.0
436.0
435.0
434.0
434.0
433.0
433.0
432.0
431.0
431.0
430.0
430.0
430.0
431.0
431.0
430.0
430.0
430.0
430.0
429.0
428.0
428.0
427.0
427.0
426.0
425.0
424.0
423.0
422.0
421.0
420.0
418.0
417.0
417.0
416.0
414.0
412.0
411.0
410.0
408.0
407.0
405.0
403.0
402.0
400.0
399.0
397.0
395.0
393.0
392.0
391.0
390.0
388.0
388.0
388.0
387.0
386.0
387.0
386.0
385.0
385.0
385.0
383.0
382.0
381.0
380.0
380.0
378.0
377.0
377.0
377.0
379.0
381.0
385.0
389.0
393.0
397.0
402.0
405.0
407.0
408.0
410.0
410.0
410.0
408.0
407.0
406.0
404.0
402.0
401.0
399.0
398.0
396.0
396.0
395.0
394.0
392.0
391.0
389.0
386.0
384.0
381.0
379.0
377.0
375.0
374.0
373.0
372.0
371.0
371.0
371.0
370.0
370.0
371.0
371.0
370.0
370.0
371.0
371.0
371.0
370.0
369.0
369.0
368.0
366.0
365.0
364.0
363.0
361.0
360.0
359.0
358.0
356.0
355.0
354.0
352.0
351.0
351.0
349.0
348.0
348.0
347.0
347.0
345.0
345.0
345.0
347.0
347.0
345.0
342.0
334.0
328.0
326.0
324.0
326.0
332.0
337.0
333.0
325.0
320.0
320.0
327.0
326.0
324.0
324.0
329.0
327.0
323.0
321.0
322.0
322.0
326.0
334.0
342.0
348.0
354.0
359.0
362.0
363.0
362.0
360.0
358.0
354.0
352.0
349.0
347.0
348.0
350.0
351.0
352.0
353.0
354.0
352.0
351.0
350.0
348.0
346.0
344.0
343.0
341.0
341.0
341.0
341.0
340.0
339.0
339.0
338.0
338.0
339.0
339.0
339.0
341.0
341.0
341.0
341.0
341.0
341.0
342.0
341.0
341.0
339.0
339.0
337.0
337.0
335.0
334.0
334.0
334.0
334.0
334.0
334.0
334.0
334.0
334.0
334.0
333.0
333.0
333.0
333.0
333.0
333.0
333.0
333.0
334.0
334.0
334.0
334.0
334.0
334.0
335.0
335.0
335.0
334.0
335.0
335.0
336.0
335.0
335.0
335.0
336.0
336.0
336.0
336.0
336.0
336.0
338.0
340.0
343.0
347.0
351.0
355.0
358.0
361.0
364.0
365.0
366.0
366.0
366.0
365.0
365.0
364.0
365.0
363.0
363.0
363.0
363.0
362.0
361.0
360.0
359.0
359.0
359.0
359.0
358.0
357.0
356.0
356.0
355.0
354.0
354.0
353.0
353.0
352.0
351.0
352.0
353.0
354.0
355.0
357.0
358.0
358.0
359.0
359.0
359.0
359.0
358.0
358.0
358.0
357.0
356.0
355.0
355.0
354.0
352.0
351.0
350.0
349.0
348.0
346.0
346.0
345.0
344.0
343.0
344.0
343.0
342.0
342.0
343.0
343.0
343.0
343.0
344.0
343.0
344.0
344.0
344.0
343.0
343.0
343.0
344.0
344.0
343.0
344.0
344.0
344.0
344.0
343.0
343.0
343.0
343.0
342.0
344.0
345.0
347.0
351.0
355.0
360.0
366.0
370.0
375.0
378.0
381.0
382.0
384.0
385.0
384.0
384.0
384.0
383.0
382.0
380.0
379.0
379.0
377.0
376.0
376.0
375.0
375.0
374.0
375.0
374.0
373.0
373.0
373.0
373.0
372.0
371.0
371.0
371.0
371.0
371.0
372.0
372.0
373.0
374.0
376.0
377.0
377.0
378.0
379.0
380.0
380.0
379.0
380.0
380.0
380.0
380.0
380.0
379.0
379.0
378.0
379.0
378.0
377.0
377.0
377.0
376.0
376.0
375.0
375.0
375.0
374.0
373.0
372.0
372.0
371.0
370.0
369.0
368.0
367.0
367.0
366.0
366.0
365.0
364.0
364.0
364.0
363.0
362.0
363.0
362.0
362.0
362.0
362.0
362.0
362.0
361.0
362.0
361.0
361.0
361.0
361.0
362.0
363.0
365.0
370.0
375.0
381.0
387.0
392.0
397.0
401.0
404.0
407.0
409.0
409.0
409.0
410.0
409.0
407.0
406.0
405.0
404.0
403.0
401.0
399.0
398.0
397.0
396.0
395.0
395.0
394.0
393.0
392.0
391.0
390.0
390.0
390.0
389.0
390.0
389.0
389.0
390.0
391.0
391.0
392.0
393.0
394.0
394.0
396.0
396.0
396.0
397.0
397.0
397.0
397.0
397.0
397.0
396.0
396.0
395.0
395.0
395.0
395.0
394.0
393.0
392.0
392.0
392.0
392.0
390.0
390.0
389.0
389.0
388.0
388.0
387.0
387.0
387.0
387.0
386.0
385.0
385.0
385.0
385.0
384.0
383.0
383.0
383.0
382.0
382.0
381.0
381.0
381.0
381.0
383.0
386.0
391.0
396.0
402.0
408.0
413.0
418.0
422.0
426.0
428.0
430.0
431.0
432.0
432.0
431.0
430.0
429.0
428.0
426.0
424.0
423.0
421.0
420.0
419.0
416.0
416.0
414.0
413.0
412.0
411.0
409.0
408.0
408.0
408.0
406.0
406.0
406.0
407.0
407.0
408.0
408.0
410.0
411.0
411.0
412.0
413.0
414.0
414.0
414.0
415.0
414.0
415.0
415.0
415.0
415.0
414.0
413.0
413.0
413.0
412.0
411.0
411.0
410.0
409.0
409.0
408.0
407.0
406.0
406.0
405.0
404.0
404.0
403.0
403.0
402.0
401.0
401.0
401.0
400.0
400.0
399.0
398.0
397.0
397.0
396.0
396.0
395.0
394.0
394.0
396.0
398.0
402.0
408.0
415.0
422.0
429.0
435.0
441.0
446.0
450.0
453.0
455.0
457.0
458.0
458.0
458.0
457.0
456.0
455.0
454.0
453.0
451.0
449.0
448.0
446.0
445.0
444.0
442.0
441.0
440.0
438.0
437.0
435.0
434.0
432.0
432.0
432.0
431.0
431.0
431.0
431.0
432.0
432.0
433.0
435.0
436.0
436.0
437.0
438.0
438.0
438.0
439.0
439.0
438.0
438.0
438.0
437.0
436.0
435.0
434.0
434.0
433.0
432.0
432.0
431.0
430.0
429.0
428.0
428.0
426.0
425.0
425.0
424.0
423.0
421.0
421.0
421.0
420.0
419.0
418.0
418.0
417.0
416.0
415.0
414.0
413.0
412.0
412.0
412.0
411.0
411.0
414.0
419.0
425.0
431.0
439.0
446.0
453.0
460.0
465.0
470.0
474.0
477.0
480.0
481.0
482.0
481.0
481.0
480.0
478.0
476.0
475.0
473.0
471.0
468.0
467.0
466.0
464.0
462.0
461.0
459.0
457.0
455.0
454.0
452.0
450.0
449.0
448.0
448.0
447.0
446.0
447.0
447.0
448.0
448.0
449.0
450.0
451.0
451.0
451.0
452.0
452.0
452.0
452.0
452.0
451.0
451.0
451.0
450.0
448.0
448.0
447.0
446.0
445.0
443.0
443.0
441.0
440.0
439.0
437.0
436.0
436.0
435.0
434.0
432.0
432.0
430.0
430.0
429.0
427.0
426.0
425.0
425.0
423.0
422.0
422.0
421.0
421.0
420.0
421.0
423.0
428.0
433.0
439.0
447.0
454.0
461.0
468.0
473.0
478.0
482.0
486.0
488.0
489.0
489.0
489.0
489.0
487.0
485.0
484.0
482.0
479.0
477.0
475.0
473.0
470.0
468.0
466.0
463.0
461.0
459.0
457.0
455.0
453.0
452.0
451.0
450.0
449.0
450.0
450.0
451.0
451.0
452.0
453.0
454.0
455.0
455.0
456.0
457.0
457.0
457.0
457.0
457.0
457.0
457.0
456.0
455.0
454.0
454.0
453.0
451.0
450.0
449.0
449.0
448.0
446.0
445.0
444.0
443.0
442.0
441.0
440.0
439.0
438.0
437.0
436.0
435.0
434.0
433.0
432.0
431.0
430.0
429.0
429.0
428.0
428.0
429.0
433.0
438.0
443.0
451.0
458.0
466.0
473.0
478.0
485.0
490.0
494.0
497.0
499.0
500.0
500.0
499.0
500.0
497.0
495.0
494.0
491.0
489.0
486.0
484.0
482.0
480.0
477.0
475.0
473.0
470.0
468.0
466.0
464.0
462.0
460.0
459.0
458.0
458.0
