0.0
390.0
391.0
392.0
395.0
398.0
400.0
402.0
405.0
406.0
408.0
408.0
409.0
409.0
410.0
410.0
410.0
409.0
410.0
410.0
412.0
411.0
412.0
413.0
417.0
419.0
423.0
423.0
426.0
425.0
426.0
426.0
428.0
429.0
431.0
430.0
430.0
429.0
431.0
431.0
431.0
428.0
428.0
430.0
433.0
432.0
432.0
431.0
435.0
440.0
444.0
443.0
441.0
427.0
410.0
404.0
405.0
404.0
404.0
404.0
401.0
393.0
390.0
390.0
390.0
392.0
394.0
396.0
398.0
400.0
404.0
407.0
409.0
410.0
411.0
412.0
412.0
413.0
414.0
417.0
420.0
421.0
422.0
422.0
422.0
422.0
424.0
425.0
425.0
423.0
421.0
419.0
419.0
418.0
419.0
418.0
400.0
372.0
374.0
376.0
377.0
378.0
379.0
380.0
381.0
382.0
393.0
426.0
456.0
482.0
500.0
513.0
518.0
520.0
519.0
518.0
517.0
513.0
507.0
504.0
499.0
496.0
493.0
489.0
485.0
480.0
476.0
472.0
467.0
461.0
455.0
449.0
443.0
439.0
436.0
433.0
431.0
430.0
432.0
434.0
437.0
438.0
439.0
439.0
438.0
436.0
433.0
429.0
424.0
419.0
414.0
410.0
404.0
397.0
391.0
385.0
378.0
372.0
366.0
361.0
356.0
352.0
347.0
343.0
339.0
336.0
333.0
330.0
326.0
322.0
320.0
318.0
316.0
314.0
311.0
311.0
310.0
308.0
306.0
304.0
303.0
303.0
303.0
302.0
300.0
299.0
298.0
296.0
295.0
294.0
292.0
291.0
290.0
288.0
287.0
286.0
285.0
284.0
284.0
285.0
286.0
288.0
291.0
296.0
303.0
313.0
325.0
341.0
363.0
386.0
404.0
418.0
428.0
434.0
436.0
435.0
432.0
425.0
419.0
413.0
406.0
399.0
391.0
385.0
379.0
375.0
371.0
367.0
363.0
359.0
355.0
351.0
348.0
346.0
345.0
344.0
343.0
341.0
341.0
341.0
340.0
340.0
340.0
341.0
341.0
341.0
341.0
340.0
340.0
340.0
338.0
336.0
334.0
331.0
328.0
328.0
328.0
326.0
325.0
324.0
324.0
323.0
321.0
319.0
317.0
317.0
317.0
317.0
317.0
317.0
317.0
316.0
314.0
314.0
313.0
313.0
311.0
310.0
311.0
310.0
309.0
307.0
307.0
305.0
305.0
306.0
307.0
309.0
313.0
319.0
326.0
337.0
355.0
386.0
417.0
446.0
474.0
503.0
528.0
545.0
556.0
563.0
567.0
567.0
566.0
562.0
558.0
555.0
549.0
544.0
538.0
533.0
527.0
521.0
513.0
504.0
496.0
490.0
484.0
477.0
473.0
470.0
466.0
464.0
461.0
459.0
459.0
457.0
457.0
457.0
457.0
457.0
455.0
453.0
450.0
447.0
443.0
438.0
433.0
428.0
424.0
421.0
417.0
413.0
409.0
406.0
403.0
400.0
396.0
392.0
389.0
387.0
384.0
382.0
381.0
379.0
376.0
374.0
372.0
370.0
368.0
365.0
363.0
361.0
360.0
359.0
359.0
358.0
358.0
358.0
360.0
364.0
374.0
392.0
425.0
461.0
502.0
543.0
577.0
603.0
622.0
637.0
648.0
653.0
653.0
652.0
648.0
644.0
639.0
633.0
627.0
622.0
618.0
615.0
613.0
610.0
607.0
604.0
601.0
595.0
589.0
583.0
578.0
572.0
568.0
564.0
562.0
561.0
561.0
562.0
563.0
564.0
563.0
564.0
563.0
562.0
561.0
558.0
556.0
553.0
549.0
544.0
541.0
536.0
531.0
525.0
520.0
514.0
508.0
501.0
496.0
490.0
484.0
478.0
474.0
469.0
465.0
462.0
458.0
453.0
448.0
445.0
440.0
436.0
433.0
429.0
425.0
421.0
417.0
414.0
412.0
409.0
406.0
403.0
403.0
406.0
414.0
434.0
461.0
495.0
532.0
563.0
591.0
614.0
629.0
639.0
644.0
645.0
643.0
640.0
635.0
630.0
624.0
620.0
614.0
609.0
606.0
603.0
600.0
598.0
595.0
593.0
590.0
586.0
580.0
574.0
569.0
564.0
560.0
556.0
555.0
555.0
555.0
554.0
555.0
556.0
557.0
558.0
558.0
557.0
556.0
554.0
552.0
550.0
547.0
542.0
538.0
533.0
530.0
526.0
522.0
517.0
512.0
506.0
502.0
499.0
495.0
490.0
486.0
482.0
478.0
474.0
471.0
467.0
464.0
460.0
456.0
453.0
450.0
447.0
445.0
443.0
440.0
437.0
434.0
431.0
427.0
423.0
419.0
417.0
413.0
410.0
408.0
405.0
403.0
404.0
410.0
423.0
446.0
475.0
505.0
537.0
566.0
589.0
603.0
612.0
617.0
617.0
614.0
610.0
605.0
599.0
595.0
591.0
586.0
582.0
578.0
575.0
572.0
570.0
568.0
566.0
564.0
561.0
557.0
553.0
549.0
545.0
541.0
538.0
535.0
534.0
534.0
534.0
535.0
537.0
538.0
539.0
540.0
540.0
539.0
538.0
535.0
532.0
530.0
527.0
524.0
521.0
516.0
512.0
507.0
503.0
498.0
494.0
490.0
486.0
483.0
479.0
476.0
472.0
470.0
467.0
465.0
461.0
458.0
456.0
456.0
454.0
453.0
451.0
449.0
447.0
444.0
442.0
440.0
437.0
434.0
431.0
428.0
426.0
423.0
419.0
416.0
413.0
409.0
407.0
404.0
401.0
398.0
395.0
392.0
389.0
386.0
383.0
380.0
377.0
375.0
375.0
378.0
387.0
405.0
432.0
464.0
496.0
527.0
552.0
570.0
581.0
588.0
590.0
590.0
586.0
581.0
577.0
571.0
565.0
561.0
557.0
553.0
550.0
548.0
546.0
545.0
542.0
539.0
537.0
532.0
528.0
524.0
520.0
518.0
516.0
513.0
511.0
510.0
510.0
511.0
510.0
512.0
515.0
516.0
517.0
516.0
516.0
514.0
512.0
508.0
505.0
502.0
500.0
497.0
494.0
491.0
487.0
483.0
480.0
474.0
471.0
466.0
461.0
456.0
453.0
450.0
447.0
444.0
440.0
436.0
430.0
425.0
421.0
416.0
412.0
409.0
407.0
407.0
407.0
407.0
405.0
404.0
400.0
394.0
388.0
380.0
374.0
369.0
364.0
360.0
356.0
354.0
354.0
354.0
355.0
357.0
359.0
361.0
362.0
362.0
361.0
359.0
353.0
348.0
343.0
336.0
332.0
332.0
336.0
353.0
387.0
430.0
471.0
506.0
536.0
556.0
566.0
569.0
568.0
564.0
559.0
553.0
546.0
540.0
533.0
527.0
521.0
516.0
513.0
509.0
504.0
498.0
491.0
484.0
476.0
469.0
464.0
460.0
457.0
456.0
454.0
452.0
449.0
448.0
446.0
444.0
443.0
443.0
444.0
443.0
442.0
440.0
438.0
434.0
430.0
426.0
422.0
419.0
416.0
413.0
410.0
407.0
401.0
397.0
391.0
384.0
378.0
373.0
367.0
365.0
363.0
362.0
361.0
358.0
355.0
353.0
352.0
348.0
345.0
342.0
341.0
340.0
338.0
336.0
334.0
332.0
331.0
330.0
327.0
324.0
322.0
321.0
320.0
320.0
320.0
320.0
320.0
320.0
321.0
324.0
328.0
334.0
341.0
350.0
366.0
386.0
405.0
423.0
436.0
447.0
454.0
459.0
460.0
459.0
457.0
454.0
451.0
447.0
442.0
438.0
434.0
429.0
423.0
416.0
407.0
399.0
391.0
384.0
379.0
376.0
373.0
372.0
370.0
369.0
368.0
367.0
365.0
364.0
362.0
361.0
359.0
357.0
356.0
354.0
352.0
349.0
345.0
341.0
338.0
335.0
334.0
334.0
333.0
333.0
331.0
329.0
326.0
324.0
322.0
321.0
320.0
318.0
316.0
314.0
313.0
311.0
310.0
309.0
308.0
308.0
308.0
309.0
310.0
311.0
310.0
308.0
306.0
303.0
302.0
300.0
301.0
301.0
302.0
303.0
306.0
313.0
325.0
346.0
378.0
419.0
460.0
499.0
531.0
556.0
574.0
586.0
592.0
592.0
589.0
583.0
577.0
571.0
565.0
562.0
558.0
556.0
555.0
552.0
551.0
552.0
551.0
549.0
546.0
542.0
538.0
536.0
531.0
523.0
514.0
503.0
495.0
486.0
479.0
473.0
468.0
463.0
457.0
452.0
447.0
442.0
438.0
435.0
431.0
427.0
422.0
418.0
414.0
412.0
410.0
410.0
410.0
408.0
406.0
404.0
401.0
399.0
394.0
390.0
386.0
383.0
379.0
376.0
373.0
368.0
366.0
364.0
363.0
361.0
359.0
358.0
357.0
354.0
353.0
352.0
350.0
349.0
348.0
347.0
345.0
343.0
342.0
343.0
345.0
349.0
358.0
375.0
403.0
434.0
468.0
497.0
522.0
541.0
555.0
563.0
565.0
565.0
562.0
559.0
557.0
552.0
546.0
540.0
536.0
531.0
526.0
520.0
515.0
509.0
504.0
499.0
495.0
488.0
482.0
477.0
473.0
469.0
465.0
463.0
460.0
457.0
454.0
453.0
451.0
449.0
445.0
441.0
437.0
435.0
434.0
433.0
429.0
425.0
421.0
419.0
417.0
413.0
409.0
405.0
401.0
398.0
394.0
392.0
388.0
385.0
383.0
382.0
380.0
378.0
374.0
371.0
368.0
366.0
364.0
362.0
360.0
358.0
358.0
357.0
357.0
355.0
353.0
352.0
351.0
349.0
348.0
347.0
345.0
343.0
341.0
340.0
340.0
339.0
337.0
337.0
337.0
340.0
345.0
352.0
361.0
373.0
392.0
419.0
445.0
472.0
494.0
510.0
521.0
527.0
530.0
531.0
529.0
526.0
521.0
517.0
512.0
507.0
502.0
499.0
497.0
493.0
489.0
485.0
480.0
475.0
470.0
465.0
460.0
456.0
452.0
448.0
446.0
444.0
440.0
437.0
434.0
431.0
429.0
427.0
426.0
425.0
423.0
420.0
419.0
415.0
412.0
410.0
407.0
403.0
400.0
398.0
397.0
396.0
396.0
395.0
393.0
391.0
389.0
386.0
384.0
383.0
380.0
379.0
379.0
379.0
377.0
376.0
374.0
373.0
370.0
370.0
368.0
368.0
366.0
366.0
366.0
365.0
363.0
363.0
361.0
359.0
359.0
360.0
358.0
357.0
355.0
354.0
353.0
350.0
349.0
349.0
347.0
347.0
346.0
347.0
348.0
350.0
354.0
361.0
371.0
382.0
398.0
419.0
440.0
459.0
474.0
485.0
491.0
493.0
491.0
489.0
485.0
479.0
472.0
466.0
460.0
455.0
450.0
446.0
441.0
437.0
433.0
430.0
427.0
424.0
420.0
417.0
415.0
412.0
410.0
408.0
405.0
404.0
402.0
401.0
400.0
400.0
399.0
397.0
395.0
392.0
390.0
389.0
388.0
387.0
387.0
385.0
384.0
382.0
380.0
378.0
375.0
373.0
370.0
370.0
369.0
368.0
366.0
365.0
364.0
364.0
363.0
363.0
362.0
362.0
362.0
361.0
361.0
361.0
360.0
357.0
357.0
357.0
358.0
360.0
361.0
362.0
363.0
364.0
365.0
366.0
366.0
367.0
367.0
367.0
366.0
366.0
365.0
365.0
364.0
365.0
366.0
368.0
373.0
381.0
390.0
399.0
410.0
420.0
437.0
456.0
470.0
485.0
496.0
501.0
502.0
501.0
497.0
493.0
486.0
480.0
475.0
470.0
464.0
460.0
457.0
456.0
454.0
453.0
452.0
453.0
454.0
454.0
454.0
453.0
453.0
454.0
455.0
455.0
457.0
458.0
459.0
460.0
461.0
463.0
463.0
463.0
464.0
465.0
466.0
465.0
464.0
463.0
462.0
460.0
457.0
454.0
453.0
453.0
453.0
453.0
452.0
451.0
451.0
450.0
448.0
447.0
445.0
444.0
445.0
443.0
441.0
440.0
439.0
438.0
437.0
437.0
438.0
437.0
436.0
434.0
432.0
432.0
431.0
429.0
428.0
426.0
423.0
425.0
425.0
424.0
421.0
420.0
418.0
417.0
415.0
413.0
412.0
410.0
411.0
416.0
423.0
434.0
447.0
469.0
495.0
522.0
544.0
561.0
574.0
581.0
585.0
585.0
583.0
578.0
572.0
566.0
559.0
551.0
544.0
539.0
533.0
527.0
521.0
514.0
508.0
501.0
495.0
488.0
480.0
475.0
470.0
465.0
460.0
456.0
451.0
448.0
445.0
442.0
438.0
436.0
433.0
432.0
429.0
427.0
423.0
419.0
414.0
409.0
403.0
398.0
393.0
388.0
383.0
379.0
375.0
371.0
369.0
367.0
364.0
362.0
359.0
357.0
354.0
352.0
350.0
349.0
348.0
348.0
347.0
346.0
345.0
344.0
343.0
341.0
338.0
337.0
336.0
336.0
334.0
334.0
335.0
335.0
332.0
332.0
332.0
332.0
331.0
331.0
331.0
330.0
328.0
327.0
326.0
325.0
324.0
324.0
324.0
324.0
325.0
327.0
332.0
338.0
347.0
361.0
386.0
418.0
451.0
480.0
503.0
522.0
535.0
544.0
548.0
548.0
544.0
540.0
534.0
529.0
521.0
515.0
509.0
503.0
499.0
495.0
490.0
488.0
486.0
482.0
476.0
471.0
466.0
461.0
456.0
452.0
448.0
445.0
444.0
443.0
441.0
441.0
439.0
438.0
435.0
432.0
429.0
427.0
425.0
423.0
421.0
418.0
415.0
412.0
409.0
406.0
403.0
400.0
397.0
395.0
393.0
391.0
389.0
386.0
383.0
381.0
379.0
377.0
374.0
372.0
371.0
370.0
369.0
368.0
368.0
367.0
365.0
362.0
361.0
360.0
358.0
358.0
358.0
358.0
357.0
356.0
355.0
353.0
352.0
350.0
348.0
348.0
348.0
347.0
345.0
345.0
345.0
344.0
344.0
342.0
340.0
342.0
344.0
348.0
354.0
362.0
371.0
384.0
405.0
429.0
455.0
475.0
489.0
501.0
508.0
511.0
512.0
509.0
504.0
496.0
490.0
485.0
480.0
475.0
470.0
464.0
459.0
455.0
450.0
445.0
440.0
436.0
432.0
429.0
426.0
424.0
420.0
418.0
416.0
414.0
410.0
408.0
406.0
404.0
403.0
402.0
401.0
400.0
398.0
397.0
394.0
393.0
389.0
386.0
383.0
380.0
378.0
377.0
376.0
375.0
372.0
370.0
369.0
368.0
367.0
366.0
366.0
365.0
364.0
364.0
363.0
361.0
359.0
356.0
353.0
352.0
353.0
354.0
353.0
352.0
351.0
351.0
350.0
349.0
347.0
347.0
347.0
346.0
345.0
344.0
342.0
340.0
338.0
337.0
335.0
332.0
330.0
329.0
327.0
329.0
334.0
343.0
352.0
363.0
374.0
396.0
426.0
456.0
484.0
509.0
529.0
544.0
552.0
555.0
555.0
551.0
546.0
540.0
533.0
525.0
518.0
512.0
507.0
502.0
496.0
490.0
485.0
478.0
473.0
466.0
461.0
457.0
454.0
451.0
449.0
447.0
445.0
444.0
442.0
437.0
433.0
429.0
425.0
420.0
417.0
415.0
413.0
414.0
414.0
413.0
411.0
410.0
407.0
405.0
403.0
401.0
398.0
396.0
395.0
396.0
395.0
393.0
391.0
390.0
389.0
387.0
386.0
385.0
385.0
387.0
390.0
392.0
393.0
395.0
397.0
397.0
396.0
395.0
394.0
393.0
394.0
394.0
394.0
393.0
392.0
391.0
388.0
384.0
380.0
377.0
374.0
375.0
378.0
382.0
389.0
397.0
407.0
419.0
436.0
460.0
481.0
499.0
516.0
530.0
537.0
538.0
536.0
531.0
526.0
520.0
513.0
505.0
497.0
490.0
486.0
480.0
476.0
471.0
466.0
462.0
458.0
452.0
447.0
440.0
435.0
430.0
427.0
424.0
422.0
420.0
418.0
417.0
416.0
416.0
413.0
410.0
410.0
412.0
414.0
413.0
411.0
409.0
408.0
405.0
402.0
398.0
396.0
394.0
391.0
391.0
391.0
389.0
389.0
387.0
385.0
382.0
379.0
378.0
378.0
378.0
379.0
380.0
380.0
379.0
378.0
377.0
375.0
373.0
373.0
373.0
374.0
374.0
373.0
373.0
372.0
371.0
370.0
368.0
370.0
372.0
380.0
390.0
400.0
413.0
434.0
459.0
479.0
495.0
508.0
514.0
518.0
518.0
515.0
510.0
503.0
496.0
489.0
483.0
476.0
471.0
465.0
461.0
457.0
454.0
451.0
450.0
447.0
445.0
442.0
439.0
436.0
435.0
435.0
435.0
434.0
434.0
432.0
432.0
431.0
428.0
425.0
422.0
421.0
420.0
422.0
424.0
425.0
424.0
425.0
425.0
424.0
422.0
422.0
422.0
423.0
422.0
421.0
421.0
420.0
420.0
419.0
418.0
416.0
413.0
411.0
410.0
410.0
410.0
411.0
409.0
410.0
411.0
412.0
413.0
416.0
421.0
426.0
431.0
435.0
439.0
443.0
447.0
451.0
455.0
459.0
463.0
464.0
465.0
469.0
476.0
481.0
487.0
493.0
498.0
503.0
506.0
503.0
495.0
485.0
473.0
462.0
453.0
445.0
440.0
435.0
434.0
435.0
437.0
442.0
448.0
454.0
458.0
463.0
466.0
466.0
466.0
464.0
462.0
457.0
450.0
445.0
441.0
434.0
429.0
424.0
423.0
425.0
428.0
431.0
431.0
430.0
429.0
425.0
421.0
415.0
409.0
404.0
402.0
401.0
399.0
400.0
400.0
400.0
400.0
399.0
398.0
396.0
395.0
394.0
394.0
395.0
393.0
394.0
395.0
395.0
394.0
393.0
393.0
393.0
392.0
389.0
387.0
387.0
388.0
392.0
394.0
396.0
397.0
400.0
403.0
406.0
410.0
414.0
421.0
431.0
451.0
481.0
506.0
529.0
545.0
556.0
565.0
568.0
568.0
564.0
561.0
556.0
553.0
549.0
544.0
541.0
537.0
536.0
534.0
532.0
528.0
523.0
518.0
514.0
508.0
503.0
498.0
493.0
490.0
489.0
486.0
484.0
483.0
480.0
481.0
479.0
479.0
477.0
476.0
473.0
471.0
470.0
469.0
466.0
465.0
462.0
460.0
458.0
456.0
453.0
451.0
449.0
448.0
448.0
448.0
447.0
445.0
443.0
441.0
439.0
437.0
434.0
433.0
431.0
430.0
429.0
430.0
430.0
430.0
429.0
428.0
426.0
423.0
421.0
419.0
419.0
419.0
419.0
419.0
419.0
419.0
418.0
417.0
415.0
412.0
410.0
409.0
408.0
408.0
409.0
413.0
422.0
434.0
455.0
487.0
519.0
551.0
578.0
598.0
613.0
621.0
623.0
622.0
618.0
612.0
604.0
597.0
591.0
584.0
579.0
574.0
572.0
569.0
565.0
561.0
557.0
553.0
549.0
542.0
535.0
528.0
522.0
516.0
510.0
504.0
501.0
500.0
498.0
497.0
496.0
495.0
492.0
489.0
485.0
482.0
478.0
474.0
472.0
469.0
467.0
464.0
461.0
460.0
459.0
458.0
458.0
457.0
454.0
449.0
443.0
438.0
434.0
431.0
430.0
428.0
428.0
429.0
432.0
433.0
433.0
433.0
429.0
426.0
423.0
421.0
419.0
418.0
415.0
413.0
413.0
412.0
411.0
411.0
410.0
409.0
408.0
408.0
408.0
408.0
408.0
406.0
406.0
405.0
402.0
399.0
397.0
395.0
393.0
390.0
386.0
383.0
379.0
376.0
372.0
368.0
366.0
365.0
367.0
370.0
375.0
383.0
395.0
418.0
453.0
489.0
524.0
553.0
577.0
594.0
605.0
610.0
611.0
609.0
606.0
601.0
595.0
588.0
581.0
576.0
573.0
569.0
566.0
563.0
560.0
557.0
552.0
548.0
541.0
536.0
531.0
528.0
523.0
519.0
514.0
508.0
505.0
501.0
496.0
493.0
491.0
488.0
486.0
484.0
480.0
476.0
472.0
469.0
464.0
459.0
454.0
450.0
445.0
440.0
435.0
431.0
429.0
425.0
421.0
417.0
414.0
411.0
408.0
406.0
404.0
403.0
401.0
401.0
400.0
398.0
396.0
394.0
392.0
388.0
384.0
383.0
382.0
383.0
383.0
381.0
381.0
379.0
376.0
373.0
371.0
371.0
371.0
372.0
373.0
374.0
375.0
377.0
377.0
376.0
374.0
373.0
372.0
372.0
371.0
372.0
372.0
372.0
372.0
373.0
374.0
372.0
372.0
370.0
370.0
367.0
365.0
364.0
362.0
360.0
359.0
361.0
365.0
372.0
381.0
391.0
403.0
414.0
426.0
447.0
464.0
475.0
483.0
487.0
487.0
484.0
478.0
472.0
466.0
462.0
458.0
454.0
449.0
446.0
443.0
441.0
438.0
436.0
432.0
428.0
424.0
420.0
415.0
412.0
410.0
410.0
410.0
410.0
410.0
409.0
409.0
408.0
405.0
401.0
400.0
401.0
400.0
398.0
397.0
397.0
397.0
396.0
395.0
394.0
394.0
393.0
393.0
392.0
391.0
389.0
387.0
384.0
382.0
379.0
378.0
378.0
378.0
379.0
379.0
380.0
380.0
379.0
377.0
375.0
374.0
373.0
372.0
371.0
370.0
372.0
372.0
373.0
374.0
374.0
374.0
373.0
373.0
372.0
372.0
371.0
371.0
370.0
370.0
371.0
370.0
370.0
371.0
371.0
370.0
369.0
368.0
368.0
368.0
368.0
368.0
368.0
368.0
367.0
367.0
368.0
367.0
366.0
364.0
364.0
362.0
362.0
362.0
363.0
365.0
369.0
375.0
383.0
392.0
405.0
430.0
456.0
478.0
496.0
510.0
521.0
527.0
529.0
527.0
522.0
515.0
509.0
503.0
496.0
490.0
485.0
480.0
476.0
473.0
468.0
464.0
459.0
453.0
447.0
445.0
440.0
436.0
434.0
431.0
429.0
427.0
425.0
423.0
421.0
420.0
418.0
416.0
413.0
411.0
410.0
408.0
407.0
405.0
404.0
402.0
401.0
400.0
398.0
397.0
394.0
393.0
391.0
389.0
389.0
389.0
390.0
388.0
387.0
386.0
386.0
386.0
386.0
386.0
386.0
386.0
387.0
387.0
388.0
388.0
389.0
388.0
386.0
385.0
386.0
385.0
383.0
382.0
382.0
381.0
381.0
379.0
378.0
379.0
379.0
380.0
379.0
377.0
374.0
371.0
369.0
368.0
367.0
365.0
365.0
363.0
364.0
364.0
366.0
366.0
365.0
365.0
366.0
365.0
366.0
369.0
375.0
383.0
392.0
402.0
416.0
435.0
457.0
473.0
486.0
497.0
503.0
503.0
498.0
492.0
483.0
476.0
468.0
461.0
455.0
451.0
448.0
445.0
442.0
439.0
436.0
433.0
430.0
425.0
423.0
422.0
421.0
421.0
423.0
425.0
426.0
426.0
426.0
425.0
423.0
421.0
419.0
416.0
414.0
413.0
413.0
412.0
412.0
411.0
410.0
409.0
408.0
407.0
406.0
404.0
399.0
397.0
395.0
394.0
395.0
394.0
393.0
393.0
393.0
394.0
394.0
394.0
393.0
391.0
390.0
389.0
390.0
390.0
390.0
390.0
390.0
392.0
394.0
396.0
395.0
393.0
393.0
393.0
394.0
397.0
403.0
408.0
411.0
413.0
414.0
414.0
412.0
409.0
406.0
403.0
400.0
399.0
400.0
399.0
400.0
400.0
400.0
399.0
397.0
396.0
397.0
400.0
406.0
417.0
431.0
451.0
476.0
495.0
510.0
522.0
529.0
531.0
531.0
530.0
525.0
517.0
508.0
499.0
490.0
483.0
476.0
471.0
466.0
464.0
464.0
464.0
464.0
463.0
462.0
460.0
457.0
454.0
450.0
447.0
444.0
441.0
443.0
445.0
446.0
446.0
446.0
446.0
445.0
444.0
442.0
438.0
434.0
433.0
433.0
432.0
432.0
430.0
428.0
426.0
424.0
421.0
418.0
417.0
416.0
416.0
416.0
416.0
416.0
416.0
415.0
413.0
410.0
408.0
409.0
411.0
412.0
411.0
411.0
410.0
410.0
408.0
407.0
404.0
402.0
398.0
397.0
396.0
394.0
394.0
394.0
393.0
392.0
392.0
394.0
397.0
404.0
414.0
430.0
460.0
492.0
517.0
541.0
560.0
573.0
578.0
579.0
576.0
569.0
563.0
559.0
552.0
545.0
538.0
532.0
526.0
520.0
514.0
507.0
501.0
495.0
488.0
483.0
479.0
474.0
470.0
466.0
463.0
462.0
460.0
459.0
459.0
458.0
459.0
461.0
461.0
461.0
460.0
458.0
456.0
453.0
450.0
448.0
445.0
441.0
437.0
435.0
432.0
430.0
427.0
426.0
424.0
422.0
421.0
421.0
420.0
417.0
414.0
413.0
412.0
412.0
411.0
409.0
409.0
408.0
408.0
409.0
408.0
407.0
405.0
402.0
400.0
398.0
395.0
395.0
397.0
399.0
404.0
410.0
418.0
429.0
448.0
479.0
511.0
543.0
572.0
594.0
610.0
621.0
626.0
627.0
625.0
622.0
614.0
607.0
600.0
594.0
588.0
582.0
577.0
573.0
569.0
565.0
560.0
554.0
548.0
542.0
534.0
528.0
523.0
517.0
513.0
507.0
503.0
501.0
498.0
494.0
491.0
491.0
493.0
494.0
495.0
495.0
493.0
492.0
490.0
487.0
482.0
476.0
470.0
465.0
461.0
457.0
452.0
448.0
444.0
439.0
435.0
432.0
428.0
425.0
421.0
419.0
417.0
414.0
412.0
409.0
407.0
405.0
402.0
402.0
400.0
399.0
397.0
394.0
392.0
391.0
389.0
389.0
389.0
392.0
402.0
421.0
452.0
491.0
533.0
572.0
606.0
633.0
654.0
668.0
675.0
677.0
675.0
671.0
667.0
662.0
655.0
650.0
645.0
641.0
637.0
634.0
632.0
630.0
628.0
626.0
623.0
616.0
609.0
602.0
594.0
586.0
581.0
576.0
573.0
570.0
569.0
568.0
567.0
565.0
564.0
561.0
558.0
555.0
551.0
548.0
544.0
538.0
532.0
526.0
519.0
509.0
500.0
491.0
481.0
473.0
467.0
460.0
453.0
446.0
441.0
437.0
432.0
428.0
425.0
422.0
422.0
421.0
419.0
417.0
415.0
409.0
404.0
397.0
392.0
386.0
381.0
378.0
374.0
373.0
372.0
372.0
371.0
371.0
371.0
373.0
377.0
385.0
401.0
436.0
478.0
523.0
564.0
600.0
629.0
652.0
666.0
673.0
675.0
672.0
668.0
663.0
656.0
650.0
643.0
637.0
632.0
627.0
623.0
621.0
618.0
615.0
612.0
607.0
599.0
587.0
575.0
562.0
550.0
536.0
526.0
518.0
514.0
514.0
516.0
520.0
524.0
527.0
531.0
533.0
533.0
529.0
524.0
519.0
515.0
509.0
503.0
497.0
490.0
484.0
476.0
469.0
462.0
454.0
447.0
441.0
436.0
431.0
426.0
421.0
416.0
411.0
406.0
402.0
399.0
395.0
393.0
391.0
388.0
386.0
383.0
381.0
378.0
375.0
372.0
369.0
367.0
364.0
363.0
361.0
359.0
357.0
354.0
352.0
351.0
349.0
349.0
348.0
347.0
345.0
343.0
341.0
340.0
339.0
336.0
333.0
332.0
332.0
334.0
336.0
340.0
347.0
362.0
395.0
440.0
486.0
530.0
568.0
598.0
619.0
634.0
642.0
646.0
644.0
640.0
634.0
629.0
623.0
618.0
615.0
611.0
607.0
604.0
602.0
599.0
598.0
596.0
592.0
585.0
578.0
570.0
561.0
554.0
548.0
543.0
539.0
537.0
536.0
537.0
539.0
542.0
544.0
545.0
544.0
541.0
539.0
536.0
531.0
527.0
521.0
513.0
504.0
495.0
487.0
477.0
469.0
462.0
456.0
450.0
446.0
442.0
437.0
433.0
429.0
424.0
420.0
415.0
413.0
411.0
408.0
404.0
401.0
398.0
395.0
391.0
388.0
386.0
384.0
382.0
379.0
378.0
374.0
372.0
370.0
368.0
365.0
363.0
361.0
361.0
360.0
359.0
357.0
355.0
355.0
355.0
355.0
356.0
356.0
354.0
353.0
353.0
351.0
349.0
348.0
348.0
348.0
349.0
349.0
350.0
349.0
349.0
347.0
344.0
344.0
346.0
349.0
356.0
366.0
384.0
419.0
459.0
495.0
530.0
557.0
577.0
588.0
594.0
595.0
594.0
588.0
581.0
574.0
566.0
557.0
550.0
544.0
538.0
533.0
527.0
520.0
514.0
506.0
499.0
490.0
484.0
477.0
470.0
465.0
460.0
456.0
453.0
449.0
444.0
440.0
437.0
435.0
433.0
431.0
428.0
425.0
422.0
419.0
416.0
413.0
408.0
404.0
400.0
397.0
394.0
390.0
388.0
385.0
383.0
380.0
378.0
377.0
376.0
377.0
378.0
379.0
381.0
380.0
382.0
382.0
383.0
382.0
381.0
379.0
377.0
374.0
371.0
369.0
368.0
366.0
366.0
366.0
367.0
368.0
371.0
373.0
374.0
374.0
371.0
369.0
367.0
364.0
362.0
360.0
357.0
358.0
359.0
360.0
361.0
362.0
362.0
361.0
360.0
359.0
359.0
362.0
363.0
364.0
366.0
368.0
369.0
369.0
368.0
367.0
366.0
364.0
365.0
368.0
373.0
381.0
391.0
402.0
423.0
456.0
486.0
510.0
531.0
548.0
557.0
559.0
556.0
550.0
541.0
532.0
522.0
508.0
496.0
485.0
479.0
472.0
463.0
454.0
447.0
441.0
436.0
432.0
428.0
425.0
423.0
422.0
422.0
421.0
421.0
422.0
421.0
419.0
417.0
416.0
415.0
415.0
417.0
417.0
414.0
411.0
407.0
404.0
402.0
399.0
398.0
398.0
398.0
397.0
396.0
395.0
394.0
392.0
390.0
388.0
386.0
385.0
385.0
385.0
385.0
384.0
382.0
380.0
379.0
377.0
376.0
376.0
376.0
377.0
377.0
378.0
377.0
373.0
371.0
368.0
366.0
362.0
359.0
356.0
354.0
354.0
353.0
353.0
354.0
356.0
357.0
358.0
359.0
358.0
357.0
355.0
354.0
353.0
352.0
351.0
350.0
349.0
347.0
347.0
346.0
345.0
346.0
347.0
348.0
351.0
356.0
366.0
378.0
398.0
433.0
474.0
512.0
547.0
575.0
593.0
603.0
607.0
605.0
602.0
595.0
587.0
577.0
567.0
558.0
550.0
542.0
534.0
527.0
520.0
514.0
509.0
502.0
496.0
491.0
486.0
482.0
477.0
474.0
471.0
467.0
465.0
464.0
465.0
468.0
472.0
475.0
477.0
477.0
475.0
472.0
467.0
460.0
452.0
446.0
440.0
435.0
431.0
427.0
425.0
422.0
421.0
418.0
416.0
414.0
413.0
413.0
413.0
413.0
410.0
408.0
405.0
402.0
398.0
394.0
391.0
390.0
390.0
390.0
390.0
389.0
389.0
388.0
385.0
381.0
377.0
373.0
370.0
367.0
364.0
362.0
361.0
362.0
361.0
360.0
359.0
357.0
357.0
355.0
354.0
352.0
349.0
344.0
341.0
339.0
337.0
336.0
334.0
334.0
337.0
342.0
351.0
376.0
420.0
462.0
504.0
541.0
569.0
590.0
604.0
611.0
614.0
612.0
609.0
603.0
593.0
583.0
573.0
565.0
558.0
554.0
550.0
546.0
542.0
538.0
533.0
527.0
521.0
515.0
513.0
512.0
514.0
518.0
524.0
530.0
535.0
541.0
549.0
555.0
559.0
561.0
563.0
563.0
561.0
559.0
554.0
550.0
546.0
542.0
539.0
536.0
532.0
529.0
526.0
523.0
521.0
519.0
519.0
518.0
517.0
517.0
517.0
517.0
517.0
515.0
514.0
513.0
511.0
508.0
505.0
503.0
502.0
500.0
501.0
503.0
513.0
522.0
529.0
536.0
556.0
593.0
597.0
596.0
603.0
602.0
603.0
604.0
604.0
604.0
604.0
603.0
603.0
603.0
607.0
614.0
628.0
648.0
673.0
698.0
718.0
735.0
748.0
758.0
763.0
763.0
763.0
763.0
761.0
757.0
751.0
746.0
740.0
733.0
727.0
721.0
718.0
712.0
707.0
702.0
697.0
692.0
689.0
686.0
683.0
681.0
681.0
681.0
685.0
688.0
694.0
698.0
705.0
711.0
717.0
723.0
728.0
733.0
736.0
738.0
740.0
741.0
745.0
746.0
748.0
749.0
750.0
750.0
748.0
745.0
742.0
739.0
739.0
738.0
739.0
740.0
739.0
739.0
739.0
737.0
735.0
733.0
731.0
729.0
728.0
728.0
729.0
729.0
728.0
727.0
727.0
727.0
728.0
729.0
732.0
735.0
740.0
744.0
751.0
760.0
763.0
763.0
763.0
763.0
763.0
763.0
763.0
763.0
763.0
763.0
763.0
763.0
763.0
763.0
763.0
763.0
763.0
763.0
763.0
763.0
763.0
763.0
763.0
763.0
763.0
763.0
763.0
763.0
763.0
763.0
763.0
763.0
763.0
763.0
763.0
763.0
763.0
763.0
763.0
763.0
763.0
763.0
763.0
763.0
763.0
763.0
763.0
763.0
763.0
763.0
763.0
763.0
763.0
763.0
763.0
763.0
763.0
763.0
763.0
763.0
763.0
763.0
763.0
763.0
763.0
763.0
763.0
763.0
763.0
763.0
763.0
763.0
763.0
763.0
763.0
763.0
763.0
763.0
763.0
763.0
763.0
763.0
763.0
763.0
763.0
763.0
763.0
763.0
763.0
763.0
763.0
763.0
763.0
763.0
763.0
763.0
763.0
763.0
763.0
763.0
763.0
763.0
763.0
763.0
763.0
763.0
763.0
763.0
763.0
763.0
763.0
763.0
763.0
763.0
763.0
763.0
763.0
763.0
763.0
763.0
763.0
763.0
763.0
763.0
763.0
763.0
763.0
763.0
763.0
763.0
763.0
763.0
763.0
763.0
763.0
763.0
763.0
763.0
763.0
763.0
763.0
763.0
763.0
763.0
763.0
763.0
763.0
763.0
763.0
763.0
763.0
763.0
763.0
763.0
763.0
763.0
763.0
763.0
763.0
763.0
763.0
763.0
763.0
763.0
763.0
763.0
763.0
763.0
763.0
763.0
763.0
763.0
763.0
763.0
763.0
742.0
703.0
651.0
569.0
308.0
1.0
757.0
747.0
751.0
755.0
758.0
760.0
762.0
762.0
762.0
762.0
762.0
762.0
762.0
761.0
762.0
762.0
762.0
762.0
762.0
762.0
762.0
762.0
762.0
761.0
760.0
757.0
755.0
753.0
751.0
750.0
748.0
744.0
740.0
738.0
742.0
744.0
743.0
743.0
744.0
743.0
743.0
742.0
742.0
742.0
742.0
742.0
743.0
747.0
751.0
755.0
757.0
759.0
760.0
761.0
762.0
762.0
762.0
762.0
762.0
762.0
761.0
760.0
757.0
742.0
6.0
1.0
1.0
1.0
1.0
1.0
1.0
1.0
1.0
1.0
1.0
1.0
1.0
1.0
1.0
1.0
1.0
1.0
1.0
1.0
1.0
24.0
453.0
763.0
763.0
763.0
763.0
763.0
763.0
763.0
763.0
763.0
763.0
763.0
763.0
763.0
763.0
763.0
763.0
763.0
763.0
763.0
763.0
763.0
763.0
763.0
763.0
763.0
763.0
763.0
763.0
763.0
763.0
763.0
763.0
763.0
763.0
763.0
763.0
763.0
763.0
763.0
763.0
763.0
763.0
763.0
763.0
763.0
763.0
763.0
763.0
763.0
763.0
763.0
763.0
763.0
763.0
763.0
763.0
763.0
763.0
763.0
763.0
763.0
763.0
763.0
763.0
763.0
763.0
763.0
763.0
763.0
763.0
763.0
763.0
763.0
763.0
763.0
763.0
763.0
763.0
763.0
763.0
763.0
763.0
763.0
763.0
763.0
763.0
763.0
763.0
763.0
763.0
763.0
763.0
763.0
763.0
763.0
763.0
763.0
763.0
763.0
763.0
763.0
763.0
763.0
763.0
763.0
763.0
763.0
763.0
763.0
763.0
763.0
763.0
763.0
763.0
763.0
763.0
763.0
763.0
763.0
763.0
763.0
763.0
763.0
763.0
763.0
763.0
763.0
763.0
763.0
763.0
763.0
763.0
763.0
763.0
763.0
763.0
763.0
763.0
763.0
763.0
763.0
763.0
763.0
763.0
763.0
763.0
763.0
763.0
763.0
763.0
763.0
763.0
763.0
763.0
763.0
763.0
763.0
763.0
763.0
763.0
763.0
763.0
763.0
763.0
763.0
763.0
763.0
763.0
763.0
763.0
763.0
763.0
763.0
763.0
763.0
763.0
763.0
763.0
763.0
763.0
763.0
763.0
763.0
763.0
763.0
763.0
763.0
763.0
757.0
749.0
742.0
734.0
722.0
709.0
694.0
677.0
657.0
638.0
623.0
610.0
600.0
583.0
565.0
557.0
552.0
546.0
538.0
529.0
523.0
522.0
525.0
521.0
513.0
507.0
502.0
499.0
496.0
494.0
490.0
487.0
487.0
487.0
486.0
488.0
492.0
497.0
506.0
518.0
537.0
550.0
558.0
558.0
567.0
578.0
588.0
607.0
622.0
625.0
613.0
589.0
563.0
540.0
521.0
506.0
498.0
499.0
508.0
520.0
526.0
527.0
524.0
518.0
511.0
503.0
496.0
488.0
481.0
476.0
473.0
471.0
469.0
465.0
459.0
452.0
442.0
431.0
419.0
408.0
399.0
392.0
388.0
384.0
378.0
373.0
367.0
361.0
352.0
342.0
333.0
325.0
319.0
315.0
313.0
311.0
310.0
308.0
305.0
303.0
301.0
297.0
295.0
294.0
294.0
294.0
294.0
295.0
300.0
305.0
309.0
313.0
314.0
314.0
312.0
309.0
307.0
306.0
307.0
310.0
313.0
314.0
315.0
315.0
316.0
317.0
319.0
321.0
323.0
326.0
330.0
335.0
340.0
344.0
347.0
350.0
354.0
357.0
361.0
363.0
365.0
367.0
370.0
372.0
373.0
373.0
374.0
374.0
374.0
375.0
374.0
374.0
374.0
375.0
376.0
376.0
375.0
374.0
374.0
374.0
374.0
374.0
373.0
373.0
372.0
371.0
370.0
369.0
368.0
367.0
366.0
367.0
368.0
370.0
371.0
373.0
375.0
376.0
377.0
377.0
376.0
374.0
373.0
373.0
375.0
375.0
375.0
374.0
374.0
375.0
376.0
376.0
376.0
375.0
375.0
376.0
378.0
380.0
381.0
383.0
384.0
385.0
386.0
385.0
384.0
383.0
382.0
382.0
383.0
385.0
385.0
386.0
386.0
386.0
387.0
388.0
390.0
390.0
391.0
391.0
392.0
393.0
393.0
393.0
393.0
394.0
396.0
397.0
398.0
398.0
397.0
398.0
400.0
400.0
401.0
401.0
401.0
402.0
403.0
405.0
407.0
410.0
413.0
418.0
421.0
425.0
427.0
427.0
427.0
426.0
425.0
426.0
427.0
429.0
432.0
434.0
437.0
438.0
438.0
436.0
434.0
432.0
431.0
430.0
431.0
431.0
431.0
432.0
432.0
432.0
432.0
432.0
433.0
433.0
433.0
434.0
434.0
434.0
433.0
433.0
432.0
432.0
432.0
432.0
431.0
432.0
434.0
435.0
435.0
434.0
432.0
430.0
432.0
433.0
432.0
431.0
429.0
429.0
428.0
428.0
428.0
428.0
427.0
425.0
425.0
425.0
426.0
425.0
423.0
421.0
419.0
419.0
419.0
417.0
415.0
414.0
413.0
412.0
414.0
415.0
415.0
414.0
412.0
411.0
411.0
409.0
407.0
405.0
404.0
404.0
404.0
404.0
404.0
404.0
403.0
403.0
404.0
404.0
403.0
403.0
403.0
403.0
403.0
401.0
400.0
398.0
399.0
401.0
402.0
403.0
404.0
407.0
409.0
412.0
414.0
417.0
420.0
422.0
423.0
423.0
424.0
425.0
426.0
428.0
430.0
431.0
431.0
431.0
429.0
426.0
424.0
421.0
419.0
417.0
418.0
418.0
420.0
421.0
421.0
421.0
420.0
417.0
415.0
415.0
416.0
417.0
417.0
417.0
418.0
418.0
419.0
419.0
419.0
418.0
416.0
416.0
416.0
416.0
415.0
414.0
413.0
414.0
413.0
412.0
411.0
411.0
412.0
412.0
413.0
414.0
415.0
414.0
412.0
410.0
407.0
403.0
400.0
398.0
398.0
399.0
401.0
403.0
405.0
407.0
409.0
409.0
410.0
410.0
409.0
409.0
409.0
409.0
410.0
410.0
410.0
410.0
411.0
411.0
411.0
412.0
413.0
413.0
414.0
414.0
414.0
414.0
415.0
415.0
416.0
416.0
417.0
417.0
417.0
418.0
418.0
418.0
419.0
420.0
421.0
423.0
425.0
427.0
428.0
428.0
430.0
432.0
434.0
434.0
436.0
436.0
435.0
433.0
432.0
431.0
430.0
429.0
428.0
425.0
423.0
422.0
422.0
422.0
421.0
418.0
417.0
415.0
413.0
410.0
408.0
404.0
399.0
392.0
384.0
376.0
367.0
362.0
363.0
368.0
376.0
385.0
397.0
408.0
419.0
430.0
440.0
449.0
455.0
460.0
464.0
468.0
473.0
478.0
481.0
482.0
483.0
480.0
478.0
476.0
478.0
482.0
489.0
497.0
507.0
517.0
526.0
533.0
535.0
533.0
528.0
522.0
514.0
507.0
501.0
498.0
495.0
493.0
491.0
490.0
486.0
483.0
482.0
479.0
479.0
478.0
480.0
482.0
483.0
486.0
487.0
488.0
488.0
487.0
486.0
484.0
483.0
481.0
478.0
475.0
475.0
475.0
476.0
476.0
475.0
474.0
475.0
475.0
477.0
478.0
480.0
482.0
485.0
489.0
492.0
493.0
494.0
495.0
497.0
498.0
498.0
499.0
499.0
499.0
498.0
496.0
495.0
494.0
494.0
491.0
491.0
493.0
496.0
497.0
498.0
497.0
494.0
491.0
487.0
481.0
475.0
471.0
470.0
469.0
468.0
466.0
464.0
462.0
459.0
456.0
453.0
450.0
449.0
449.0
451.0
451.0
451.0
449.0
449.0
447.0
445.0
443.0
442.0
442.0
444.0
444.0
445.0
445.0
445.0
445.0
444.0
444.0
444.0
444.0
444.0
443.0
442.0
441.0
440.0
439.0
438.0
437.0
438.0
440.0
442.0
444.0
445.0
445.0
445.0
444.0
444.0
443.0
443.0
445.0
446.0
447.0
448.0
449.0
449.0
449.0
448.0
448.0
449.0
450.0
451.0
453.0
454.0
453.0
453.0
451.0
449.0
445.0
442.0
440.0
438.0
437.0
436.0
433.0
431.0
428.0
425.0
423.0
421.0
419.0
417.0
416.0
415.0
414.0
413.0
411.0
410.0
409.0
409.0
410.0
410.0
409.0
408.0
407.0
406.0
405.0
404.0
403.0
403.0
403.0
402.0
402.0
403.0
402.0
402.0
402.0
400.0
397.0
396.0
394.0
394.0
394.0
393.0
393.0
393.0
394.0
394.0
393.0
394.0
394.0
396.0
397.0
399.0
399.0
400.0
399.0
399.0
399.0
396.0
394.0
393.0
394.0
396.0
397.0
399.0
402.0
405.0
408.0
409.0
408.0
408.0
408.0
408.0
407.0
408.0
406.0
405.0
403.0
402.0
400.0
396.0
392.0
387.0
382.0
381.0
381.0
383.0
385.0
388.0
390.0
391.0
391.0
389.0
385.0
379.0
372.0
362.0
349.0
342.0
335.0
331.0
325.0
322.0
320.0
319.0
323.0
330.0
339.0
341.0
357.0
392.0
425.0
439.0
443.0
450.0
459.0
463.0
464.0
464.0
464.0
467.0
469.0
473.0
479.0
489.0
500.0
514.0
527.0
540.0
547.0
558.0
570.0
579.0
587.0
602.0
625.0
661.0
715.0
763.0
763.0
763.0
763.0
763.0
763.0
763.0
763.0
763.0
763.0
763.0
763.0
763.0
763.0
763.0
763.0
763.0
763.0
763.0
763.0
763.0
763.0
763.0
763.0
763.0
763.0
763.0
763.0
763.0
763.0
763.0
763.0
763.0
763.0
763.0
763.0
763.0
763.0
763.0
763.0
763.0
763.0
763.0
763.0
763.0
763.0
763.0
763.0
763.0
763.0
763.0
763.0
763.0
763.0
763.0
763.0
763.0
763.0
763.0
763.0
763.0
763.0
763.0
763.0
763.0
763.0
763.0
763.0
763.0
763.0
763.0
763.0
763.0
763.0
763.0
763.0
763.0
763.0
763.0
763.0
763.0
763.0
763.0
763.0
763.0
763.0
763.0
763.0
763.0
763.0
763.0
763.0
763.0
763.0
763.0
763.0
763.0
763.0
763.0
763.0
763.0
763.0
763.0
763.0
763.0
763.0
763.0
763.0
763.0
763.0
763.0
763.0
763.0
763.0
763.0
763.0
763.0
763.0
763.0
763.0
763.0
763.0
763.0
763.0
695.0
570.0
400.0
151.0
1.0
741.0
750.0
746.0
748.0
750.0
751.0
753.0
755.0
758.0
761.0
762.0
759.0
1.0
1.0
1.0
1.0
1.0
1.0
1.0
1.0
1.0
1.0
1.0
35.0
83.0
120.0
155.0
186.0
215.0
248.0
278.0
303.0
329.0
353.0
368.0
372.0
369.0
364.0
358.0
352.0
346.0
338.0
333.0
330.0
334.0
345.0
355.0
357.0
347.0
326.0
292.0
243.0
188.0
132.0
75.0
15.0
1.0
1.0
1.0
1.0
1.0
1.0
1.0
1.0
1.0
1.0
1.0
1.0
757.0
762.0
761.0
759.0
1.0
1.0
1.0
1.0
1.0
1.0
1.0
757.0
753.0
1.0
1.0
1.0
1.0
1.0
1.0
1.0
1.0
1.0
1.0
1.0
1.0
1.0
1.0
1.0
1.0
1.0
1.0
1.0
298.0
763.0
763.0
763.0
763.0
763.0
763.0
763.0
763.0
763.0
763.0
763.0
763.0
763.0
763.0
763.0
763.0
763.0
763.0
763.0
763.0
763.0
763.0
763.0
763.0
763.0
763.0
763.0
763.0
763.0
763.0
763.0
763.0
763.0
763.0
763.0
763.0
763.0
763.0
763.0
763.0
763.0
763.0
763.0
763.0
763.0
763.0
763.0
763.0
763.0
763.0
763.0
763.0
763.0
763.0
763.0
763.0
763.0
763.0
763.0
763.0
763.0
763.0
763.0
763.0
763.0
763.0
763.0
763.0
763.0
763.0
763.0
763.0
763.0
763.0
763.0
763.0
763.0
763.0
763.0
763.0
763.0
763.0
763.0
763.0
763.0
763.0
763.0
763.0
763.0
763.0
763.0
763.0
763.0
763.0
763.0
763.0
763.0
763.0
763.0
763.0
763.0
763.0
763.0
763.0
763.0
763.0
763.0
763.0
763.0
763.0
763.0
763.0
763.0
763.0
763.0
763.0
763.0
763.0
763.0
763.0
763.0
763.0
763.0
763.0
763.0
763.0
763.0
763.0
763.0
763.0
763.0
763.0
763.0
763.0
763.0
763.0
763.0
763.0
763.0
763.0
763.0
763.0
763.0
763.0
763.0
763.0
763.0
763.0
763.0
763.0
763.0
763.0
763.0
763.0
763.0
763.0
763.0
763.0
763.0
763.0
763.0
763.0
763.0
763.0
763.0
763.0
763.0
763.0
763.0
763.0
763.0
763.0
763.0
763.0
763.0
763.0
763.0
763.0
763.0
763.0
763.0
763.0
763.0
763.0
763.0
763.0
763.0
763.0
763.0
763.0
763.0
763.0
763.0
763.0
763.0
763.0
763.0
763.0
763.0
763.0
763.0
763.0
763.0
763.0
763.0
763.0
763.0
763.0
763.0
763.0
763.0
763.0
763.0
763.0
763.0
763.0
763.0
763.0
763.0
763.0
763.0
763.0
763.0
763.0
763.0
763.0
763.0
763.0
763.0
763.0
763.0
763.0
763.0
763.0
763.0
762.0
759.0
756.0
753.0
750.0
747.0
744.0
739.0
734.0
729.0
723.0
717.0
711.0
705.0
700.0
694.0
687.0
682.0
676.0
669.0
661.0
653.0
646.0
639.0
634.0
629.0
624.0
620.0
615.0
612.0
608.0
604.0
600.0
595.0
592.0
589.0
585.0
583.0
580.0
577.0
574.0
571.0
567.0
565.0
561.0
558.0
555.0
551.0
549.0
547.0
544.0
540.0
537.0
533.0
529.0
525.0
521.0
517.0
513.0
510.0
508.0
506.0
505.0
509.0
519.0
536.0
558.0
580.0
602.0
622.0
640.0
653.0
661.0
667.0
670.0
670.0
667.0
661.0
655.0
648.0
641.0
633.0
626.0
618.0
612.0
607.0
601.0
597.0
594.0
589.0
585.0
580.0
576.0
572.0
568.0
565.0
562.0
561.0
559.0
560.0
560.0
562.0
564.0
567.0
569.0
572.0
574.0
575.0
575.0
573.0
570.0
567.0
564.0
560.0
557.0
554.0
549.0
545.0
540.0
535.0
532.0
528.0
524.0
519.0
516.0
512.0
510.0
506.0
503.0
499.0
497.0
495.0
493.0
491.0
490.0
488.0
486.0
485.0
485.0
484.0
483.0
481.0
480.0
479.0
478.0
477.0
476.0
475.0
472.0
470.0
467.0
466.0
464.0
463.0
464.0
469.0
481.0
499.0
522.0
544.0
563.0
578.0
594.0
605.0
612.0
616.0
618.0
618.0
614.0
609.0
603.0
596.0
589.0
582.0
575.0
569.0
564.0
560.0
556.0
552.0
547.0
543.0
539.0
535.0
530.0
526.0
523.0
521.0
520.0
520.0
520.0
521.0
522.0
524.0
525.0
526.0
528.0
530.0
531.0
532.0
532.0
530.0
529.0
525.0
522.0
518.0
515.0
511.0
506.0
503.0
500.0
497.0
494.0
490.0
485.0
481.0
476.0
473.0
470.0
468.0
465.0
462.0
460.0
457.0
454.0
452.0
451.0
448.0
446.0
444.0
443.0
442.0
440.0
438.0
437.0
436.0
436.0
435.0
434.0
431.0
429.0
427.0
426.0
425.0
423.0
423.0
426.0
435.0
450.0
471.0
493.0
514.0
533.0
550.0
564.0
573.0
578.0
580.0
580.0
577.0
573.0
569.0
564.0
558.0
552.0
547.0
542.0
537.0
533.0
528.0
526.0
524.0
521.0
519.0
517.0
514.0
510.0
507.0
504.0
502.0
501.0
500.0
501.0
502.0
504.0
507.0
509.0
512.0
512.0
513.0
514.0
514.0
512.0
510.0
507.0
505.0
502.0
499.0
496.0
492.0
488.0
484.0
481.0
477.0
473.0
470.0
467.0
463.0
460.0
458.0
456.0
454.0
453.0
452.0
451.0
449.0
447.0
446.0
446.0
444.0
444.0
444.0
445.0
445.0
444.0
443.0
443.0
442.0
441.0
438.0
435.0
433.0
431.0
428.0
425.0
423.0
420.0
418.0
418.0
419.0
425.0
437.0
455.0
479.0
502.0
525.0
545.0
561.0
571.0
579.0
583.0
584.0
582.0
579.0
575.0
570.0
566.0
561.0
557.0
552.0
547.0
543.0
540.0
537.0
535.0
532.0
529.0
525.0
522.0
518.0
515.0
513.0
512.0
514.0
516.0
518.0
520.0
521.0
522.0
521.0
522.0
521.0
520.0
520.0
519.0
518.0
519.0
518.0
518.0
516.0
514.0
510.0
507.0
503.0
498.0
493.0
487.0
481.0
477.0
473.0
470.0
467.0
465.0
464.0
464.0
462.0
461.0
461.0
459.0
457.0
456.0
453.0
451.0
450.0
449.0
448.0
448.0
449.0
450.0
449.0
449.0
448.0
448.0
448.0
447.0
446.0
444.0
442.0
440.0
438.0
436.0
433.0
431.0
430.0
434.0
442.0
457.0
477.0
501.0
522.0
543.0
562.0
576.0
586.0
594.0
598.0
600.0
598.0
596.0
593.0
589.0
584.0
579.0
574.0
571.0
565.0
562.0
559.0
559.0
557.0
557.0
555.0
553.0
550.0
548.0
545.0
542.0
540.0
538.0
535.0
535.0
535.0
537.0
538.0
540.0
541.0
543.0
544.0
545.0
545.0
544.0
543.0
542.0
540.0
537.0
533.0
530.0
525.0
522.0
519.0
516.0
513.0
509.0
505.0
502.0
500.0
498.0
495.0
494.0
491.0
489.0
486.0
486.0
484.0
482.0
481.0
479.0
478.0
476.0
475.0
474.0
472.0
470.0
468.0
469.0
467.0
466.0
464.0
463.0
461.0
459.0
457.0
456.0
455.0
453.0
451.0
450.0
449.0
447.0
443.0
441.0
439.0
436.0
434.0
434.0
435.0
440.0
452.0
470.0
493.0
516.0
538.0
559.0
576.0
590.0
600.0
606.0
609.0
609.0
608.0
605.0
600.0
594.0
588.0
583.0
578.0
574.0
570.0
569.0
567.0
565.0
564.0
562.0
560.0
556.0
551.0
548.0
545.0
541.0
540.0
540.0
541.0
542.0
544.0
544.0
545.0
546.0
547.0
548.0
549.0
549.0
549.0
549.0
547.0
545.0
541.0
539.0
535.0
531.0
526.0
521.0
517.0
512.0
507.0
503.0
499.0
495.0
493.0
492.0
491.0
491.0
489.0
488.0
485.0
482.0
479.0
476.0
473.0
471.0
468.0
466.0
466.0
466.0
465.0
465.0
463.0
459.0
457.0
456.0
454.0
451.0
449.0
448.0
446.0
444.0
441.0
438.0
436.0
433.0
431.0
430.0
428.0
426.0
424.0
422.0
420.0
419.0
417.0
416.0
414.0
412.0
410.0
409.0
407.0
407.0
410.0
419.0
435.0
455.0
478.0
503.0
525.0
544.0
560.0
573.0
581.0
585.0
588.0
588.0
586.0
582.0
575.0
570.0
563.0
556.0
550.0
546.0
543.0
541.0
538.0
538.0
537.0
535.0
533.0
530.0
524.0
521.0
518.0
516.0
515.0
515.0
516.0
518.0
520.0
522.0
523.0
526.0
526.0
527.0
527.0
528.0
526.0
524.0
522.0
520.0
516.0
512.0
507.0
503.0
497.0
494.0
490.0
488.0
485.0
483.0
479.0
476.0
472.0
469.0
466.0
462.0
460.0
457.0
456.0
456.0
455.0
455.0
454.0
454.0
453.0
451.0
449.0
447.0
444.0
441.0
438.0
435.0
434.0
433.0
432.0
432.0
430.0
431.0
430.0
429.0
427.0
425.0
424.0
423.0
422.0
420.0
418.0
416.0
414.0
412.0
411.0
410.0
409.0
406.0
404.0
402.0
399.0
397.0
394.0
393.0
394.0
401.0
416.0
436.0
458.0
482.0
505.0
525.0
541.0
553.0
562.0
567.0
569.0
568.0
565.0
562.0
556.0
549.0
541.0
535.0
529.0
524.0
519.0
515.0
512.0
508.0
506.0
503.0
499.0
496.0
492.0
491.0
489.0
489.0
490.0
493.0
494.0
498.0
502.0
506.0
508.0
509.0
510.0
511.0
510.0
508.0
506.0
504.0
501.0
498.0
494.0
491.0
486.0
482.0
477.0
472.0
467.0
463.0
459.0
456.0
453.0
450.0
448.0
446.0
444.0
442.0
439.0
436.0
434.0
431.0
430.0
428.0
426.0
424.0
423.0
421.0
419.0
417.0
414.0
412.0
410.0
408.0
407.0
406.0
405.0
404.0
402.0
401.0
398.0
397.0
394.0
392.0
390.0
388.0
386.0
383.0
382.0
380.0
377.0
374.0
372.0
370.0
367.0
365.0
363.0
361.0
359.0
358.0
360.0
366.0
380.0
402.0
425.0
450.0
473.0
496.0
514.0
527.0
537.0
543.0
545.0
545.0
544.0
541.0
536.0
530.0
523.0
517.0
509.0
504.0
499.0
494.0
489.0
485.0
481.0
478.0
474.0
469.0
464.0
460.0
457.0
454.0
454.0
455.0
458.0
459.0
463.0
468.0
471.0
475.0
478.0
480.0
481.0
480.0
479.0
478.0
475.0
472.0
468.0
464.0
460.0
457.0
453.0
450.0
446.0
443.0
439.0
435.0
432.0
428.0
425.0
423.0
421.0
418.0
416.0
414.0
413.0
412.0
411.0
410.0
409.0
407.0
406.0
406.0
405.0
404.0
403.0
403.0
402.0
402.0
402.0
401.0
400.0
397.0
395.0
394.0
392.0
392.0
390.0
388.0
387.0
385.0
383.0
382.0
379.0
376.0
374.0
373.0
374.0
378.0
387.0
405.0
428.0
452.0
475.0
497.0
517.0
533.0
545.0
555.0
561.0
564.0
563.0
561.0
557.0
552.0
547.0
542.0
537.0
532.0
527.0
523.0
519.0
515.0
511.0
505.0
501.0
495.0
491.0
487.0
483.0
481.0
479.0
480.0
482.0
483.0
485.0
489.0
491.0
494.0
498.0
500.0
501.0
503.0
503.0
504.0
503.0
500.0
497.0
493.0
490.0
487.0
484.0
481.0
478.0
473.0
469.0
466.0
462.0
459.0
456.0
454.0
451.0
450.0
448.0
447.0
445.0
443.0
440.0
439.0
439.0
438.0
438.0
438.0
437.0
436.0
435.0
434.0
433.0
432.0
431.0
430.0
427.0
426.0
424.0
421.0
418.0
416.0
415.0
415.0
415.0
420.0
430.0
447.0
467.0
488.0
507.0
525.0
540.0
551.0
560.0
567.0
570.0
571.0
569.0
566.0
562.0
558.0
551.0
544.0
537.0
532.0
528.0
524.0
521.0
517.0
514.0
509.0
504.0
500.0
494.0
490.0
488.0
486.0
486.0
487.0
489.0
491.0
494.0
498.0
501.0
504.0
506.0
507.0
507.0
506.0
504.0
502.0
498.0
494.0
490.0
485.0
482.0
479.0
475.0
471.0
467.0
463.0
460.0
457.0
452.0
448.0
445.0
444.0
441.0
438.0
437.0
435.0
434.0
432.0
431.0
431.0
429.0
428.0
426.0
427.0
426.0
425.0
424.0
423.0
421.0
418.0
416.0
414.0
412.0
412.0
414.0
418.0
428.0
445.0
465.0
488.0
510.0
529.0
547.0
561.0
572.0
579.0
584.0
585.0
585.0
583.0
578.0
573.0
567.0
563.0
559.0
557.0
553.0
550.0
549.0
547.0
546.0
545.0
543.0
541.0
538.0
533.0
529.0
527.0
524.0
523.0
522.0
521.0
522.0
522.0
523.0
525.0
526.0
527.0
527.0
528.0
529.0
528.0
526.0
523.0
520.0
518.0
514.0
509.0
504.0
500.0
496.0
493.0
489.0
485.0
482.0
479.0
476.0
473.0
470.0
467.0
463.0
461.0
459.0
457.0
456.0
454.0
452.0
451.0
449.0
449.0
448.0
447.0
446.0
445.0
442.0
441.0
440.0
437.0
435.0
433.0
430.0
427.0
424.0
423.0
422.0
427.0
435.0
450.0
469.0
491.0
513.0
532.0
549.0
562.0
572.0
579.0
582.0
584.0
583.0
582.0
579.0
575.0
571.0
566.0
563.0
559.0
556.0
554.0
552.0
551.0
551.0
550.0
549.0
546.0
543.0
538.0
533.0
529.0
526.0
525.0
524.0
524.0
524.0
527.0
530.0
532.0
533.0
534.0
532.0
532.0
532.0
530.0
528.0
526.0
522.0
518.0
514.0
510.0
506.0
503.0
500.0
496.0
492.0
490.0
487.0
483.0
481.0
479.0
476.0
474.0
472.0
470.0
468.0
466.0
464.0
463.0
461.0
459.0
457.0
456.0
456.0
454.0
454.0
453.0
452.0
450.0
449.0
448.0
445.0
442.0
439.0
436.0
434.0
432.0
431.0
429.0
426.0
424.0
422.0
422.0
426.0
435.0
450.0
470.0
490.0
510.0
529.0
544.0
557.0
565.0
570.0
573.0
573.0
570.0
566.0
560.0
554.0
548.0
542.0
537.0
534.0
531.0
530.0
529.0
528.0
525.0
522.0
518.0
514.0
509.0
505.0
501.0
500.0
499.0
499.0
501.0
503.0
505.0
506.0
507.0
508.0
509.0
509.0
509.0
506.0
505.0
503.0
500.0
497.0
494.0
490.0
485.0
481.0
477.0
474.0
472.0
468.0
464.0
460.0
458.0
456.0
452.0
448.0
446.0
445.0
444.0
443.0
442.0
440.0
437.0
436.0
435.0
433.0
431.0
429.0
428.0
427.0
425.0
424.0
422.0
420.0
418.0
415.0
413.0
410.0
406.0
404.0
403.0
402.0
401.0
399.0
398.0
396.0
394.0
392.0
389.0
387.0
385.0
382.0
380.0
378.0
376.0
375.0
373.0
372.0
372.0
378.0
391.0
410.0
433.0
458.0
480.0
500.0
518.0
533.0
544.0
551.0
553.0
553.0
552.0
550.0
547.0
542.0
538.0
533.0
530.0
526.0
523.0
521.0
518.0
518.0
518.0
518.0
518.0
517.0
516.0
513.0
509.0
505.0
501.0
497.0
495.0
493.0
492.0
492.0
494.0
495.0
495.0
496.0
497.0
498.0
498.0
497.0
495.0
492.0
489.0
487.0
482.0
479.0
475.0
471.0
467.0
464.0
461.0
458.0
454.0
452.0
449.0
446.0
444.0
442.0
441.0
439.0
436.0
435.0
433.0
431.0
429.0
427.0
425.0
424.0
423.0
421.0
419.0
417.0
416.0
416.0
414.0
412.0
411.0
409.0
408.0
406.0
404.0
401.0
400.0
398.0
395.0
394.0
392.0
391.0
389.0
386.0
385.0
384.0
382.0
379.0
376.0
374.0
372.0
370.0
368.0
366.0
364.0
362.0
359.0
358.0
356.0
356.0
359.0
366.0
381.0
401.0
425.0
449.0
472.0
491.0
506.0
518.0
527.0
531.0
533.0
532.0
530.0
527.0
524.0
520.0
515.0
509.0
505.0
502.0
501.0
499.0
500.0
499.0
499.0
499.0
496.0
492.0
488.0
483.0
479.0
476.0
475.0
473.0
473.0
473.0
474.0
474.0
475.0
477.0
478.0
478.0
479.0
479.0
478.0
477.0
475.0
473.0
468.0
465.0
461.0
458.0
454.0
450.0
446.0
442.0
440.0
437.0
434.0
432.0
428.0
425.0
423.0
421.0
419.0
418.0
415.0
414.0
413.0
412.0
411.0
409.0
408.0
407.0
405.0
404.0
402.0
400.0
398.0
396.0
394.0
393.0
392.0
390.0
387.0
385.0
383.0
381.0
377.0
375.0
373.0
370.0
369.0
367.0
365.0
363.0
361.0
358.0
357.0
355.0
354.0
352.0
350.0
348.0
346.0
343.0
342.0
340.0
338.0
335.0
333.0
332.0
333.0
338.0
350.0
368.0
392.0
416.0
441.0
461.0
479.0
493.0
504.0
512.0
516.0
518.0
518.0
515.0
512.0
505.0
500.0
495.0
491.0
487.0
484.0
483.0
483.0
481.0
481.0
479.0
477.0
474.0
475.0
472.0
469.0
466.0
464.0
463.0
463.0
463.0
464.0
466.0
468.0
470.0
473.0
474.0
474.0
474.0
474.0
473.0
470.0
467.0
465.0
462.0
458.0
454.0
450.0
446.0
441.0
436.0
433.0
429.0
427.0
424.0
421.0
417.0
416.0
414.0
412.0
410.0
407.0
405.0
404.0
402.0
401.0
400.0
398.0
396.0
395.0
392.0
392.0
390.0
389.0
386.0
385.0
383.0
382.0
380.0
379.0
377.0
375.0
372.0
371.0
368.0
367.0
365.0
364.0
361.0
360.0
358.0
356.0
356.0
354.0
353.0
353.0
350.0
349.0
346.0
344.0
342.0
341.0
338.0
336.0
334.0
334.0
336.0
347.0
364.0
386.0
411.0
436.0
458.0
477.0
492.0
504.0
510.0
514.0
515.0
513.0
510.0
507.0
501.0
495.0
490.0
486.0
481.0
476.0
472.0
469.0
466.0
463.0
461.0
459.0
456.0
453.0
451.0
448.0
445.0
443.0
442.0
442.0
444.0
447.0
450.0
452.0
455.0
459.0
461.0
463.0
464.0
463.0
462.0
461.0
458.0
456.0
452.0
449.0
444.0
441.0
436.0
432.0
428.0
425.0
421.0
415.0
412.0
409.0
405.0
402.0
400.0
397.0
393.0
390.0
388.0
386.0
384.0
383.0
382.0
380.0
379.0
378.0
376.0
375.0
374.0
374.0
373.0
372.0
371.0
369.0
367.0
366.0
363.0
362.0
360.0
360.0
359.0
357.0
356.0
355.0
353.0
351.0
348.0
346.0
343.0
341.0
338.0
336.0
333.0
333.0
332.0
335.0
343.0
358.0
381.0
408.0
434.0
459.0
480.0
497.0
509.0
518.0
523.0
525.0
525.0
522.0
518.0
514.0
509.0
504.0
499.0
494.0
489.0
484.0
479.0
476.0
472.0
470.0
468.0
464.0
460.0
456.0
452.0
450.0
448.0
447.0
449.0
450.0
453.0
458.0
462.0
466.0
469.0
472.0
473.0
474.0
473.0
472.0
471.0
469.0
466.0
461.0
457.0
454.0
450.0
447.0
444.0
442.0
439.0
436.0
432.0
430.0
428.0
424.0
421.0
418.0
415.0
413.0
411.0
411.0
410.0
409.0
408.0
407.0
406.0
403.0
401.0
400.0
398.0
398.0
395.0
395.0
393.0
393.0
392.0
391.0
389.0
386.0
382.0
381.0
379.0
378.0
376.0
374.0
373.0
372.0
372.0
377.0
387.0
403.0
423.0
445.0
468.0
489.0
506.0
520.0
530.0
536.0
539.0
540.0
538.0
535.0
531.0
526.0
521.0
516.0
510.0
505.0
499.0
495.0
491.0
486.0
483.0
479.0
474.0
470.0
466.0
462.0
459.0
457.0
456.0
458.0
461.0
465.0
470.0
472.0
476.0
480.0
482.0
483.0
484.0
484.0
483.0
480.0
478.0
476.0
473.0
469.0
464.0
461.0
456.0
452.0
447.0
444.0
441.0
438.0
435.0
433.0
431.0
429.0
426.0
422.0
419.0
417.0
414.0
413.0
411.0
410.0
409.0
409.0
408.0
407.0
406.0
405.0
403.0
403.0
402.0
401.0
399.0
398.0
396.0
396.0
395.0
393.0
390.0
390.0
392.0
400.0
415.0
435.0
457.0
479.0
501.0
519.0
534.0
547.0
555.0
560.0
562.0
563.0
561.0
559.0
554.0
549.0
545.0
540.0
535.0
531.0
527.0
525.0
524.0
522.0
521.0
519.0
516.0
511.0
506.0
501.0
497.0
495.0
494.0
495.0
495.0
498.0
501.0
503.0
505.0
507.0
508.0
509.0
508.0
506.0
504.0
503.0
502.0
500.0
497.0
495.0
491.0
487.0
483.0
478.0
473.0
468.0
464.0
460.0
456.0
453.0
450.0
449.0
447.0
445.0
443.0
441.0
439.0
437.0
435.0
433.0
431.0
430.0
430.0
429.0
428.0
428.0
426.0
424.0
423.0
421.0
419.0
416.0
414.0
411.0
408.0
407.0
406.0
406.0
410.0
418.0
432.0
450.0
471.0
493.0
512.0
528.0
542.0
555.0
561.0
565.0
566.0
564.0
562.0
558.0
553.0
549.0
546.0
542.0
539.0
536.0
534.0
531.0
529.0
527.0
525.0
522.0
519.0
514.0
510.0
506.0
503.0
501.0
499.0
499.0
499.0
500.0
501.0
503.0
504.0
505.0
506.0
506.0
506.0
505.0
504.0
501.0
498.0
495.0
492.0
488.0
484.0
480.0
476.0
472.0
467.0
465.0
461.0
458.0
455.0
452.0
449.0
447.0
445.0
443.0
441.0
439.0
437.0
436.0
434.0
432.0
431.0
429.0
427.0
427.0
426.0
424.0
423.0
422.0
420.0
420.0
419.0
416.0
414.0
411.0
409.0
407.0
404.0
403.0
401.0
398.0
395.0
394.0
392.0
392.0
396.0
406.0
421.0
441.0
465.0
486.0
504.0
521.0
535.0
545.0
550.0
552.0
552.0
550.0
548.0
545.0
540.0
536.0
531.0
527.0
525.0
522.0
520.0
517.0
516.0
514.0
513.0
510.0
507.0
503.0
498.0
495.0
490.0
487.0
485.0
486.0
487.0
488.0
490.0
492.0
494.0
495.0
495.0
495.0
493.0
493.0
491.0
489.0
486.0
484.0
481.0
477.0
473.0
469.0
464.0
461.0
458.0
456.0
453.0
449.0
447.0
444.0
441.0
439.0
437.0
436.0
434.0
432.0
429.0
427.0
426.0
424.0
422.0
419.0
418.0
416.0
416.0
415.0
414.0
411.0
411.0
409.0
408.0
405.0
403.0
401.0
399.0
397.0
396.0
394.0
393.0
392.0
390.0
389.0
386.0
386.0
385.0
383.0
382.0
381.0
379.0
378.0
375.0
372.0
369.0
368.0
369.0
372.0
381.0
398.0
420.0
445.0
469.0
491.0
508.0
523.0
533.0
540.0
545.0
546.0
543.0
540.0
535.0
530.0
526.0
521.0
517.0
514.0
510.0
508.0
506.0
503.0
502.0
500.0
498.0
495.0
493.0
490.0
487.0
483.0
481.0
479.0
477.0
478.0
479.0
480.0
483.0
485.0
486.0
488.0
488.0
488.0
486.0
484.0
481.0
478.0
476.0
474.0
470.0
466.0
463.0
460.0
457.0
452.0
447.0
445.0
443.0
441.0
439.0
437.0
435.0
433.0
431.0
429.0
427.0
424.0
422.0
421.0
421.0
421.0
420.0
419.0
419.0
418.0
415.0
413.0
411.0
408.0
407.0
406.0
405.0
404.0
402.0
402.0
400.0
398.0
395.0
392.0
389.0
387.0
386.0
384.0
383.0
382.0
381.0
379.0
378.0
376.0
374.0
373.0
370.0
368.0
366.0
363.0
361.0
360.0
359.0
358.0
357.0
361.0
371.0
389.0
412.0
437.0
460.0
481.0
498.0
512.0
523.0
530.0
534.0
534.0
531.0
528.0
524.0
519.0
515.0
510.0
505.0
502.0
500.0
497.0
494.0
493.0
492.0
491.0
490.0
487.0
483.0
480.0
477.0
474.0
470.0
469.0
468.0
469.0
471.0
474.0
478.0
479.0
482.0
484.0
485.0
485.0
484.0
482.0
479.0
477.0
474.0
470.0
468.0
465.0
461.0
458.0
453.0
449.0
445.0
442.0
439.0
437.0
434.0
433.0
431.0
429.0
426.0
424.0
423.0
421.0
420.0
419.0
418.0
417.0
416.0
415.0
413.0
412.0
411.0
410.0
409.0
408.0
406.0
405.0
403.0
402.0
399.0
398.0
396.0
394.0
392.0
391.0
389.0
387.0
386.0
384.0
383.0
380.0
378.0
375.0
373.0
370.0
368.0
366.0
364.0
362.0
361.0
361.0
364.0
371.0
385.0
405.0
428.0
451.0
472.0
490.0
503.0
514.0
521.0
526.0
526.0
524.0
521.0
516.0
510.0
505.0
500.0
495.0
491.0
487.0
484.0
481.0
476.0
472.0
468.0
463.0
460.0
455.0
451.0
449.0
447.0
447.0
448.0
449.0
451.0
454.0
456.0
460.0
463.0
464.0
467.0
469.0
467.0
466.0
463.0
461.0
457.0
453.0
448.0
444.0
440.0
437.0
433.0
429.0
426.0
423.0
419.0
417.0
414.0
413.0
410.0
407.0
405.0
403.0
401.0
399.0
399.0
397.0
396.0
395.0
393.0
392.0
391.0
390.0
389.0
388.0
388.0
385.0
384.0
383.0
381.0
380.0
379.0
378.0
376.0
375.0
375.0
374.0
373.0
373.0
372.0
371.0
368.0
367.0
366.0
365.0
364.0
363.0
360.0
359.0
358.0
359.0
361.0
371.0
390.0
415.0
442.0
468.0
493.0
513.0
531.0
545.0
554.0
560.0
564.0
565.0
564.0
561.0
557.0
552.0
547.0
544.0
540.0
536.0
534.0
533.0
532.0
531.0
530.0
530.0
528.0
525.0
522.0
519.0
517.0
513.0
512.0
511.0
512.0
511.0
511.0
514.0
516.0
518.0
521.0
523.0
524.0
524.0
524.0
523.0
522.0
518.0
515.0
512.0
508.0
504.0
500.0
497.0
494.0
491.0
486.0
482.0
479.0
475.0
473.0
469.0
467.0
464.0
461.0
459.0
456.0
454.0
452.0
450.0
448.0
447.0
445.0
444.0
443.0
441.0
439.0
438.0
437.0
436.0
434.0
432.0
430.0
427.0
424.0
422.0
420.0
418.0
416.0
415.0
413.0
411.0
408.0
406.0
404.0
401.0
397.0
396.0
394.0
392.0
389.0
387.0
386.0
388.0
396.0
412.0
434.0
458.0
482.0
507.0
527.0
545.0
558.0
567.0
573.0
576.0
578.0
576.0
573.0
568.0
562.0
558.0
554.0
549.0
545.0
543.0
540.0
538.0
536.0
535.0
534.0
532.0
529.0
526.0
522.0
518.0
515.0
513.0
512.0
512.0
511.0
513.0
515.0
517.0
519.0
520.0
522.0
522.0
522.0
522.0
520.0
518.0
516.0
514.0
509.0
504.0
499.0
494.0
490.0
486.0
483.0
479.0
474.0
471.0
468.0
465.0
462.0
458.0
454.0
451.0
450.0
448.0
446.0
445.0
442.0
440.0
438.0
437.0
434.0
432.0
429.0
428.0
426.0
425.0
423.0
422.0
420.0
418.0
416.0
415.0
412.0
410.0
408.0
407.0
405.0
403.0
401.0
399.0
396.0
394.0
392.0
391.0
388.0
386.0
382.0
379.0
378.0
380.0
386.0
399.0
419.0
442.0
466.0
491.0
512.0
529.0
542.0
552.0
560.0
563.0
564.0
563.0
559.0
555.0
550.0
547.0
543.0
539.0
535.0
532.0
530.0
528.0
525.0
523.0
521.0
519.0
516.0
513.0
508.0
504.0
502.0
500.0
499.0
499.0
499.0
500.0
501.0
503.0
506.0
508.0
510.0
511.0
510.0
510.0
508.0
505.0
501.0
497.0
494.0
491.0
488.0
485.0
482.0
479.0
475.0
471.0
467.0
464.0
460.0
456.0
453.0
451.0
450.0
450.0
448.0
446.0
444.0
442.0
439.0
437.0
435.0
433.0
432.0
432.0
431.0
430.0
429.0
427.0
425.0
423.0
419.0
418.0
416.0
415.0
414.0
412.0
409.0
407.0
405.0
403.0
401.0
401.0
403.0
408.0
420.0
437.0
455.0
476.0
494.0
512.0
526.0
538.0
544.0
549.0
550.0
550.0
548.0
544.0
539.0
535.0
530.0
526.0
521.0
517.0
511.0
508.0
503.0
498.0
493.0
488.0
483.0
477.0
472.0
470.0
467.0
467.0
467.0
469.0
473.0
476.0
478.0
481.0
483.0
485.0
485.0
484.0
482.0
479.0
475.0
471.0
467.0
463.0
459.0
455.0
450.0
447.0
442.0
438.0
434.0
430.0
425.0
422.0
419.0
417.0
414.0
411.0
408.0
406.0
402.0
399.0
396.0
395.0
393.0
392.0
390.0
390.0
389.0
388.0
387.0
386.0
383.0
381.0
379.0
377.0
374.0
374.0
373.0
371.0
369.0
367.0
365.0
364.0
362.0
362.0
367.0
377.0
395.0
418.0
442.0
467.0
489.0
507.0
522.0
533.0
540.0
544.0
546.0
546.0
544.0
543.0
540.0
538.0
535.0
532.0
530.0
527.0
525.0
524.0
524.0
524.0
524.0
524.0
522.0
521.0
516.0
514.0
509.0
506.0
503.0
502.0
501.0
501.0
503.0
504.0
505.0
507.0
507.0
508.0
508.0
507.0
506.0
504.0
502.0
500.0
498.0
495.0
491.0
487.0
483.0
480.0
475.0
470.0
465.0
462.0
460.0
458.0
455.0
453.0
452.0
450.0
448.0
446.0
444.0
442.0
439.0
437.0
436.0
435.0
434.0
433.0
432.0
430.0
428.0
425.0
424.0
421.0
418.0
416.0
413.0
411.0
410.0
409.0
409.0
415.0
426.0
442.0
460.0
481.0
501.0
518.0
533.0
545.0
554.0
560.0
564.0
566.0
565.0
565.0
564.0
561.0
558.0
556.0
555.0
555.0
554.0
554.0
553.0
552.0
552.0
552.0
549.0
546.0
542.0
538.0
534.0
531.0
528.0
526.0
525.0
524.0
524.0
525.0
526.0
528.0
530.0
531.0
531.0
530.0
530.0
530.0
527.0
524.0
520.0
516.0
511.0
507.0
502.0
499.0
495.0
492.0
487.0
485.0
482.0
478.0
474.0
471.0
467.0
464.0
461.0
459.0
457.0
455.0
454.0
452.0
450.0
448.0
446.0
444.0
441.0
439.0
437.0
436.0
434.0
433.0
432.0
430.0
428.0
424.0
422.0
420.0
417.0
413.0
410.0
409.0
405.0
402.0
401.0
405.0
413.0
428.0
446.0
468.0
489.0
508.0
524.0
538.0
548.0
555.0
559.0
561.0
562.0
562.0
559.0
557.0
554.0
551.0
549.0
548.0
547.0
545.0
545.0
545.0
544.0
543.0
540.0
538.0
534.0
530.0
525.0
521.0
518.0
516.0
514.0
515.0
516.0
516.0
515.0
517.0
517.0
518.0
518.0
517.0
515.0
513.0
510.0
509.0
507.0
503.0
499.0
495.0
491.0
487.0
482.0
480.0
477.0
474.0
472.0
469.0
466.0
462.0
459.0
457.0
454.0
452.0
450.0
448.0
446.0
445.0
443.0
443.0
439.0
437.0
434.0
432.0
430.0
429.0
427.0
427.0
425.0
422.0
421.0
420.0
419.0
417.0
415.0
412.0
409.0
408.0
407.0
406.0
403.0
401.0
398.0
395.0
392.0
388.0
384.0
381.0
379.0
379.0
382.0
391.0
405.0
425.0
447.0
470.0
489.0
505.0
518.0
528.0
536.0
542.0
545.0
546.0
544.0
541.0
537.0
534.0
530.0
527.0
524.0
522.0
519.0
519.0
520.0
520.0
518.0
516.0
513.0
509.0
503.0
499.0
495.0
493.0
492.0
492.0
493.0
494.0
497.0
499.0
501.0
502.0
503.0
501.0
500.0
498.0
496.0
495.0
492.0
490.0
488.0
484.0
480.0
478.0
474.0
470.0
465.0
462.0
459.0
456.0
454.0
451.0
448.0
447.0
445.0
443.0
441.0
440.0
438.0
436.0
435.0
433.0
431.0
431.0
429.0
427.0
425.0
424.0
422.0
420.0
419.0
418.0
416.0
414.0
412.0
411.0
409.0
406.0
403.0
400.0
397.0
393.0
389.0
386.0
383.0
382.0
382.0
386.0
396.0
412.0
430.0
448.0
466.0
482.0
494.0
504.0
513.0
519.0
522.0
524.0
522.0
520.0
517.0
513.0
508.0
502.0
498.0
493.0
491.0
489.0
487.0
486.0
483.0
479.0
474.0
470.0
465.0
461.0
458.0
456.0
456.0
458.0
460.0
461.0
463.0
465.0
467.0
468.0
468.0
468.0
468.0
467.0
466.0
464.0
461.0
458.0
454.0
450.0
446.0
442.0
438.0
434.0
429.0
426.0
423.0
421.0
418.0
416.0
412.0
410.0
407.0
404.0
403.0
402.0
399.0
398.0
395.0
396.0
395.0
394.0
392.0
390.0
388.0
386.0
385.0
383.0
381.0
380.0
379.0
377.0
376.0
375.0
373.0
372.0
370.0
367.0
364.0
361.0
360.0
358.0
355.0
353.0
349.0
348.0
348.0
351.0
360.0
374.0
395.0
418.0
441.0
462.0
480.0
495.0
506.0
515.0
520.0
522.0
523.0
523.0
521.0
518.0
515.0
512.0
510.0
508.0
506.0
506.0
505.0
504.0
503.0
503.0
503.0
501.0
499.0
495.0
491.0
487.0
483.0
481.0
479.0
478.0
476.0
476.0
477.0
479.0
481.0
481.0
481.0
480.0
479.0
479.0
477.0
476.0
473.0
470.0
467.0
463.0
459.0
456.0
452.0
448.0
446.0
443.0
439.0
435.0
432.0
429.0
426.0
423.0
420.0
419.0
416.0
415.0
413.0
412.0
410.0
408.0
405.0
404.0
403.0
400.0
399.0
398.0
396.0
394.0
393.0
391.0
389.0
388.0
386.0
384.0
382.0
380.0
378.0
376.0
374.0
372.0
370.0
368.0
366.0
363.0
360.0
357.0
354.0
351.0
349.0
348.0
352.0
362.0
379.0
401.0
424.0
446.0
464.0
480.0
494.0
502.0
510.0
512.0
514.0
514.0
512.0
509.0
506.0
503.0
499.0
496.0
493.0
491.0
489.0
489.0
488.0
487.0
485.0
484.0
482.0
480.0
476.0
471.0
467.0
465.0
462.0
460.0
460.0
459.0
459.0
461.0
461.0
463.0
464.0
464.0
464.0
463.0
462.0
461.0
459.0
455.0
452.0
450.0
445.0
442.0
438.0
433.0
430.0
426.0
423.0
420.0
418.0
415.0
412.0
409.0
406.0
404.0
401.0
399.0
396.0
393.0
392.0
390.0
389.0
387.0
385.0
384.0
383.0
381.0
378.0
376.0
374.0
373.0
373.0
372.0
368.0
367.0
365.0
363.0
362.0
360.0
358.0
356.0
354.0
352.0
351.0
349.0
348.0
344.0
341.0
339.0
336.0
333.0
331.0
330.0
331.0
338.0
352.0
373.0
396.0
419.0
439.0
455.0
468.0
478.0
487.0
490.0
494.0
494.0
493.0
490.0
487.0
483.0
478.0
475.0
471.0
467.0
464.0
462.0
460.0
460.0
459.0
457.0
456.0
452.0
447.0
444.0
440.0
438.0
436.0
434.0
434.0
434.0
436.0
438.0
439.0
441.0
441.0
443.0
443.0
443.0
442.0
440.0
438.0
434.0
431.0
429.0
427.0
423.0
419.0
416.0
411.0
408.0
405.0
402.0
399.0
398.0
397.0
395.0
395.0
397.0
398.0
398.0
400.0
401.0
399.0
398.0
397.0
395.0
394.0
393.0
392.0
391.0
390.0
390.0
389.0
388.0
387.0
384.0
380.0
376.0
372.0
368.0
365.0
362.0
359.0
356.0
355.0
354.0
354.0
354.0
354.0
354.0
354.0
355.0
355.0
354.0
354.0
355.0
357.0
364.0
373.0
391.0
411.0
430.0
448.0
465.0
478.0
488.0
494.0
499.0
501.0
501.0
499.0
496.0
492.0
488.0
484.0
480.0
475.0
471.0
468.0
466.0
464.0
462.0
460.0
458.0
454.0
449.0
444.0
441.0
437.0
432.0
431.0
430.0
429.0
428.0
428.0
430.0
430.0
431.0
432.0
434.0
436.0
437.0
437.0
437.0
436.0
433.0
430.0
427.0
425.0
423.0
419.0
416.0
412.0
408.0
405.0
401.0
397.0
394.0
390.0
388.0
384.0
381.0
378.0
376.0
374.0
371.0
367.0
365.0
362.0
360.0
358.0
357.0
356.0
354.0
354.0
352.0
352.0
351.0
349.0
348.0
346.0
346.0
346.0
345.0
343.0
342.0
340.0
338.0
337.0
335.0
333.0
331.0
329.0
330.0
336.0
350.0
370.0
394.0
422.0
447.0
468.0
484.0
498.0
506.0
511.0
512.0
510.0
506.0
501.0
496.0
491.0
487.0
483.0
479.0
474.0
469.0
465.0
462.0
458.0
456.0
452.0
448.0
444.0
441.0
436.0
433.0
431.0
429.0
428.0
428.0
429.0
431.0
433.0
435.0
438.0
439.0
442.0
445.0
446.0
447.0
447.0
445.0
442.0
439.0
435.0
430.0
426.0
423.0
420.0
417.0
413.0
410.0
407.0
403.0
399.0
396.0
392.0
388.0
385.0
383.0
381.0
380.0
379.0
377.0
375.0
375.0
375.0
374.0
373.0
372.0
370.0
369.0
368.0
367.0
365.0
364.0
361.0
359.0
357.0
357.0
358.0
363.0
375.0
392.0
412.0
433.0
453.0
471.0
484.0
495.0
502.0
507.0
509.0
509.0
507.0
504.0
499.0
494.0
490.0
485.0
481.0
476.0
473.0
471.0
467.0
465.0
461.0
458.0
453.0
448.0
443.0
438.0
434.0
433.0
431.0
431.0
432.0
434.0
435.0
438.0
440.0
442.0
446.0
447.0
447.0
447.0
446.0
444.0
441.0
438.0
434.0
431.0
428.0
426.0
422.0
418.0
415.0
411.0
408.0
404.0
401.0
398.0
394.0
392.0
390.0
388.0
385.0
383.0
380.0
379.0
378.0
378.0
378.0
376.0
375.0
374.0
372.0
370.0
368.0
365.0
363.0
362.0
361.0
362.0
367.0
375.0
389.0
408.0
428.0
446.0
463.0
477.0
488.0
496.0
501.0
505.0
506.0
506.0
503.0
499.0
495.0
490.0
486.0
481.0
478.0
475.0
471.0
470.0
467.0
466.0
464.0
461.0
457.0
453.0
449.0
446.0
443.0
440.0
439.0
439.0
440.0
441.0
441.0
443.0
445.0
446.0
447.0
448.0
447.0
447.0
445.0
444.0
440.0
437.0
433.0
431.0
428.0
425.0
422.0
418.0
415.0
411.0
407.0
404.0
401.0
398.0
394.0
392.0
389.0
387.0
386.0
386.0
384.0
382.0
381.0
380.0
379.0
377.0
375.0
374.0
373.0
372.0
371.0
371.0
370.0
368.0
366.0
363.0
360.0
357.0
355.0
355.0
359.0
369.0
385.0
406.0
427.0
448.0
464.0
477.0
486.0
493.0
495.0
497.0
496.0
494.0
492.0
489.0
484.0
480.0
476.0
473.0
469.0
467.0
465.0
464.0
463.0
461.0
459.0
457.0
454.0
449.0
444.0
440.0
437.0
435.0
434.0
434.0
434.0
436.0
437.0
440.0
441.0
442.0
441.0
441.0
441.0
441.0
439.0
438.0
436.0
434.0
431.0
428.0
424.0
419.0
415.0
411.0
407.0
406.0
402.0
400.0
398.0
395.0
393.0
391.0
388.0
386.0
383.0
382.0
380.0
379.0
378.0
377.0
376.0
374.0
373.0
373.0
370.0
369.0
368.0
368.0
367.0
367.0
365.0
364.0
362.0
361.0
359.0
358.0
356.0
354.0
353.0
351.0
349.0
348.0
346.0
343.0
341.0
339.0
339.0
341.0
350.0
366.0
386.0
410.0
431.0
450.0
464.0
475.0
482.0
486.0
488.0
489.0
487.0
485.0
481.0
478.0
475.0
471.0
467.0
463.0
459.0
456.0
455.0
455.0
454.0
453.0
450.0
447.0
444.0
441.0
437.0
435.0
432.0
430.0
428.0
429.0
430.0
432.0
435.0
437.0
438.0
440.0
440.0
440.0
439.0
437.0
435.0
432.0
430.0
427.0
423.0
419.0
415.0
411.0
407.0
405.0
400.0
397.0
394.0
392.0
388.0
385.0
383.0
380.0
378.0
376.0
373.0
372.0
370.0
369.0
367.0
366.0
365.0
363.0
362.0
361.0
359.0
359.0
358.0
357.0
356.0
354.0
353.0
352.0
350.0
348.0
347.0
346.0
345.0
343.0
342.0
341.0
339.0
337.0
334.0
334.0
332.0
331.0
329.0
328.0
326.0
325.0
322.0
321.0
320.0
321.0
324.0
334.0
349.0
371.0
393.0
415.0
433.0
447.0
459.0
467.0
471.0
472.0
471.0
469.0
465.0
460.0
455.0
450.0
443.0
439.0
435.0
432.0
428.0
426.0
423.0
422.0
420.0
416.0
413.0
411.0
408.0
405.0
403.0
402.0
402.0
403.0
405.0
408.0
411.0
413.0
415.0
417.0
418.0
417.0
417.0
416.0
415.0
412.0
410.0
409.0
405.0
403.0
400.0
397.0
393.0
390.0
388.0
386.0
384.0
381.0
379.0
378.0
376.0
375.0
373.0
372.0
371.0
369.0
368.0
367.0
366.0
365.0
364.0
363.0
362.0
362.0
361.0
361.0
359.0
359.0
357.0
357.0
356.0
355.0
354.0
354.0
352.0
352.0
351.0
350.0
349.0
348.0
346.0
346.0
345.0
343.0
342.0
341.0
340.0
338.0
336.0
334.0
332.0
330.0
330.0
333.0
341.0
357.0
379.0
404.0
429.0
449.0
466.0
478.0
487.0
493.0
496.0
499.0
497.0
495.0
491.0
486.0
481.0
476.0
471.0
467.0
464.0
463.0
461.0
460.0
459.0
459.0
455.0
453.0
449.0
445.0
440.0
437.0
435.0
433.0
433.0
434.0
434.0
435.0
436.0
438.0
440.0
441.0
443.0
443.0
443.0
442.0
440.0
438.0
436.0
434.0
431.0
429.0
426.0
424.0
420.0
417.0
414.0
411.0
408.0
407.0
405.0
403.0
399.0
397.0
394.0
392.0
390.0
389.0
388.0
387.0
386.0
385.0
385.0
385.0
384.0
383.0
381.0
379.0
378.0
378.0
378.0
377.0
377.0
377.0
376.0
375.0
373.0
372.0
371.0
371.0
370.0
367.0
366.0
365.0
364.0
364.0
362.0
360.0
357.0
356.0
355.0
353.0
353.0
354.0
359.0
372.0
392.0
416.0
441.0
464.0
481.0
495.0
504.0
511.0
515.0
517.0
516.0
513.0
508.0
504.0
499.0
493.0
488.0
484.0
480.0
477.0
474.0
471.0
469.0
467.0
463.0
462.0
459.0
456.0
452.0
449.0
447.0
445.0
446.0
447.0
448.0
449.0
451.0
454.0
457.0
459.0
460.0
461.0
462.0
462.0
461.0
459.0
456.0
452.0
448.0
445.0
441.0
437.0
433.0
429.0
427.0
424.0
423.0
421.0
418.0
416.0
413.0
411.0
408.0
407.0
405.0
404.0
404.0
402.0
401.0
401.0
400.0
399.0
398.0
397.0
396.0
396.0
394.0
394.0
393.0
392.0
390.0
390.0
388.0
387.0
385.0
383.0
383.0
382.0
382.0
381.0
380.0
379.0
378.0
376.0
373.0
369.0
368.0
367.0
365.0
365.0
368.0
377.0
394.0
416.0
441.0
464.0
484.0
498.0
509.0
517.0
523.0
527.0
528.0
528.0
525.0
521.0
516.0
510.0
504.0
498.0
492.0
489.0
485.0
482.0
479.0
477.0
474.0
471.0
467.0
464.0
460.0
456.0
455.0
455.0
455.0
458.0
461.0
465.0
469.0
473.0
478.0
481.0
484.0
485.0
484.0
484.0
483.0
479.0
477.0
472.0
469.0
465.0
462.0
458.0
454.0
449.0
446.0
442.0
438.0
435.0
431.0
428.0
426.0
423.0
421.0
420.0
418.0
416.0
413.0
412.0
411.0
409.0
408.0
408.0
406.0
405.0
405.0
404.0
404.0
404.0
403.0
402.0
402.0
401.0
400.0
399.0
397.0
396.0
392.0
389.0
386.0
383.0
381.0
379.0
379.0
384.0
394.0
411.0
430.0
449.0
468.0
486.0
499.0
507.0
513.0
515.0
516.0
516.0
512.0
509.0
504.0
498.0
492.0
488.0
483.0
479.0
474.0
470.0
466.0
463.0
459.0
455.0
451.0
447.0
443.0
440.0
439.0
438.0
439.0
441.0
442.0
445.0
449.0
453.0
457.0
460.0
463.0
464.0
464.0
464.0
462.0
459.0
456.0
452.0
447.0
444.0
441.0
438.0
434.0
432.0
428.0
425.0
421.0
418.0
414.0
411.0
409.0
407.0
405.0
402.0
400.0
400.0
398.0
396.0
392.0
392.0
391.0
389.0
388.0
387.0
387.0
385.0
385.0
384.0
384.0
384.0
383.0
383.0
382.0
381.0
378.0
377.0
376.0
375.0
373.0
375.0
382.0
397.0
418.0
442.0
465.0
486.0
504.0
520.0
530.0
540.0
545.0
548.0
549.0
548.0
546.0
542.0
536.0
531.0
526.0
521.0
518.0
516.0
513.0
511.0
510.0
510.0
508.0
506.0
504.0
501.0
498.0
495.0
491.0
489.0
487.0
488.0
488.0
490.0
491.0
492.0
494.0
496.0
499.0
501.0
501.0
501.0
499.0
498.0
496.0
493.0
490.0
487.0
483.0
479.0
474.0
471.0
469.0
465.0
462.0
458.0
454.0
452.0
451.0
449.0
447.0
446.0
445.0
444.0
443.0
442.0
441.0
439.0
438.0
437.0
434.0
434.0
433.0
432.0
431.0
430.0
429.0
426.0
424.0
421.0
420.0
417.0
417.0
419.0
428.0
443.0
463.0
485.0
508.0
526.0
541.0
555.0
565.0
573.0
578.0
579.0
579.0
578.0
576.0
572.0
568.0
563.0
559.0
555.0
553.0
551.0
549.0
548.0
547.0
546.0
543.0
541.0
537.0
532.0
529.0
525.0
522.0
520.0
520.0
521.0
523.0
524.0
524.0
526.0
527.0
529.0
529.0
530.0
529.0
528.0
526.0
523.0
520.0
515.0
510.0
507.0
503.0
499.0
495.0
491.0
488.0
485.0
482.0
479.0
475.0
471.0
467.0
464.0
462.0
461.0
459.0
457.0
455.0
454.0
453.0
451.0
450.0
448.0
446.0
445.0
444.0
444.0
443.0
442.0
440.0
438.0
435.0
433.0
429.0
426.0
424.0
424.0
426.0
433.0
447.0
467.0
489.0
511.0
530.0
545.0
556.0
566.0
572.0
578.0
579.0
578.0
576.0
574.0
571.0
567.0
563.0
558.0
554.0
550.0
549.0
549.0
548.0
546.0
545.0
543.0
539.0
535.0
530.0
525.0
521.0
517.0
515.0
515.0
515.0
516.0
517.0
518.0
518.0
519.0
520.0
519.0
519.0
518.0
516.0
515.0
513.0
509.0
505.0
501.0
497.0
491.0
487.0
483.0
479.0
475.0
472.0
469.0
466.0
463.0
460.0
457.0
454.0
452.0
449.0
447.0
445.0
443.0
441.0
440.0
439.0
438.0
436.0
436.0
434.0
433.0
432.0
431.0
428.0
426.0
424.0
424.0
423.0
423.0
422.0
420.0
418.0
415.0
413.0
409.0
406.0
403.0
400.0
403.0
412.0
427.0
448.0
470.0
491.0
509.0
524.0
536.0
544.0
547.0
550.0
553.0
552.0
550.0
546.0
543.0
540.0
535.0
531.0
528.0
527.0
524.0
522.0
521.0
520.0
518.0
515.0
510.0
505.0
499.0
495.0
491.0
490.0
489.0
489.0
490.0
491.0
493.0
494.0
495.0
496.0
496.0
495.0
496.0
495.0
494.0
491.0
488.0
484.0
480.0
475.0
471.0
465.0
461.0
458.0
454.0
451.0
449.0
447.0
444.0
442.0
439.0
436.0
435.0
432.0
429.0
427.0
426.0
425.0
423.0
422.0
421.0
420.0
418.0
418.0
416.0
414.0
413.0
412.0
411.0
410.0
408.0
406.0
405.0
403.0
400.0
399.0
397.0
395.0
394.0
392.0
391.0
390.0
387.0
385.0
382.0
379.0
376.0
374.0
372.0
370.0
371.0
375.0
386.0
404.0
424.0
446.0
466.0
483.0
499.0
510.0
519.0
524.0
526.0
528.0
527.0
525.0
521.0
517.0
516.0
514.0
512.0
509.0
507.0
505.0
504.0
503.0
501.0
500.0
499.0
497.0
495.0
492.0
490.0
487.0
486.0
485.0
485.0
485.0
487.0
489.0
491.0
492.0
494.0
494.0
495.0
494.0
492.0
490.0
487.0
485.0
483.0
481.0
477.0
474.0
471.0
468.0
465.0
461.0
458.0
454.0
451.0
449.0
447.0
445.0
442.0
439.0
437.0
435.0
433.0
432.0
431.0
429.0
426.0
425.0
425.0
423.0
421.0
418.0
416.0
416.0
415.0
413.0
412.0
411.0
410.0
409.0
407.0
406.0
404.0
402.0
400.0
399.0
396.0
395.0
394.0
392.0
390.0
387.0
385.0
383.0
380.0
379.0
381.0
387.0
399.0
416.0
434.0
454.0
471.0
484.0
495.0
503.0
507.0
510.0
511.0
510.0
509.0
505.0
502.0
497.0
491.0
487.0
483.0
478.0
475.0
472.0
470.0
467.0
465.0
462.0
459.0
453.0
449.0
446.0
445.0
445.0
447.0
448.0
452.0
456.0
460.0
462.0
464.0
465.0
465.0
465.0
464.0
463.0
460.0
457.0
455.0
451.0
447.0
444.0
440.0
435.0
432.0
428.0
425.0
422.0
419.0
416.0
413.0
410.0
408.0
406.0
405.0
403.0
401.0
399.0
398.0
397.0
396.0
396.0
395.0
394.0
392.0
390.0
390.0
388.0
387.0
386.0
385.0
385.0
383.0
382.0
381.0
379.0
378.0
376.0
374.0
372.0
372.0
371.0
370.0
368.0
366.0
363.0
361.0
357.0
354.0
353.0
352.0
351.0
353.0
360.0
376.0
397.0
421.0
442.0
461.0
476.0
490.0
500.0
508.0
512.0
514.0
512.0
511.0
508.0
505.0
500.0
497.0
493.0
489.0
487.0
485.0
483.0
483.0
482.0
482.0
481.0
479.0
474.0
471.0
467.0
464.0
462.0
461.0
460.0
461.0
462.0
463.0
465.0
465.0
466.0
468.0
469.0
469.0
469.0
469.0
467.0
465.0
462.0
459.0
456.0
452.0
449.0
445.0
441.0
438.0
435.0
433.0
429.0
427.0
423.0
421.0
418.0
416.0
414.0
413.0
412.0
410.0
407.0
406.0
405.0
404.0
401.0
400.0
400.0
399.0
398.0
396.0
395.0
395.0
393.0
392.0
389.0
387.0
385.0
385.0
384.0
383.0
382.0
381.0
379.0
377.0
375.0
374.0
372.0
370.0
367.0
365.0
364.0
363.0
362.0
364.0
373.0
388.0
410.0
435.0
456.0
475.0
490.0
501.0
509.0
515.0
518.0
519.0
519.0
518.0
516.0
513.0
508.0
505.0
500.0
496.0
492.0
489.0
487.0
487.0
485.0
484.0
482.0
480.0
477.0
471.0
467.0
462.0
459.0
458.0
457.0
458.0
460.0
462.0
462.0
466.0
468.0
469.0
469.0
470.0
469.0
469.0
467.0
465.0
463.0
458.0
455.0
452.0
448.0
444.0
441.0
437.0
433.0
430.0
427.0
424.0
420.0
417.0
415.0
414.0
412.0
410.0
408.0
407.0
406.0
404.0
403.0
401.0
400.0
399.0
398.0
398.0
396.0
394.0
393.0
392.0
389.0
389.0
388.0
387.0
385.0
384.0
382.0
382.0
380.0
378.0
376.0
374.0
373.0
372.0
370.0
369.0
367.0
364.0
362.0
361.0
359.0
358.0
359.0
369.0
386.0
409.0
432.0
456.0
476.0
491.0
503.0
512.0
519.0
522.0
522.0
520.0
519.0
515.0
512.0
507.0
502.0
498.0
495.0
492.0
489.0
489.0
490.0
490.0
489.0
488.0
485.0
481.0
477.0
472.0
468.0
466.0
463.0
463.0
463.0
465.0
466.0
468.0
469.0
471.0
471.0
470.0
469.0
470.0
470.0
469.0
467.0
465.0
461.0
459.0
456.0
454.0
449.0
446.0
440.0
436.0
433.0
430.0
427.0
425.0
422.0
420.0
419.0
418.0
416.0
414.0
411.0
409.0
408.0
408.0
408.0
408.0
408.0
408.0
408.0
407.0
406.0
405.0
403.0
401.0
400.0
400.0
398.0
398.0
397.0
396.0
394.0
392.0
389.0
387.0
385.0
383.0
382.0
380.0
377.0
378.0
380.0
390.0
407.0
430.0
452.0
474.0
490.0
504.0
515.0
523.0
527.0
531.0
530.0
528.0
524.0
520.0
515.0
511.0
507.0
503.0
499.0
495.0
491.0
489.0
486.0
483.0
479.0
476.0
471.0
467.0
462.0
460.0
459.0
459.0
459.0
461.0
463.0
465.0
469.0
473.0
475.0
477.0
479.0
480.0
478.0
477.0
474.0
470.0
465.0
462.0
460.0
458.0
454.0
450.0
447.0
443.0
439.0
435.0
430.0
428.0
425.0
422.0
419.0
417.0
415.0
413.0
411.0
409.0
408.0
406.0
405.0
405.0
403.0
403.0
403.0
403.0
402.0
400.0
399.0
396.0
394.0
392.0
389.0
387.0
386.0
384.0
384.0
389.0
398.0
414.0
433.0
455.0
475.0
491.0
503.0
514.0
521.0
527.0
530.0
531.0
530.0
529.0
526.0
522.0
519.0
516.0
514.0
514.0
514.0
513.0
513.0
514.0
513.0
510.0
506.0
501.0
495.0
491.0
487.0
482.0
479.0
476.0
475.0
475.0
476.0
478.0
481.0
483.0
485.0
487.0
488.0
489.0
487.0
485.0
482.0
479.0
475.0
471.0
467.0
460.0
455.0
451.0
447.0
443.0
441.0
438.0
436.0
434.0
433.0
431.0
430.0
428.0
426.0
425.0
425.0
425.0
425.0
426.0
426.0
427.0
428.0
428.0
427.0
426.0
423.0
422.0
418.0
417.0
416.0
417.0
417.0
422.0
431.0
446.0
464.0
482.0
500.0
515.0
528.0
539.0
547.0
552.0
555.0
558.0
558.0
557.0
556.0
554.0
552.0
550.0
547.0
547.0
546.0
545.0
544.0
543.0
541.0
539.0
537.0
533.0
530.0
527.0
523.0
520.0
516.0
514.0
513.0
512.0
512.0
511.0
510.0
510.0
511.0
511.0
511.0
510.0
508.0
506.0
504.0
501.0
498.0
495.0
490.0
486.0
483.0
480.0
478.0
477.0
474.0
470.0
467.0
464.0
461.0
457.0
454.0
451.0
449.0
448.0
446.0
445.0
444.0
443.0
443.0
442.0
441.0
439.0
438.0
437.0
435.0
433.0
432.0
432.0
432.0
432.0
434.0
441.0
452.0
466.0
482.0
499.0
514.0
527.0
538.0
545.0
548.0
550.0
550.0
548.0
546.0
544.0
540.0
537.0
533.0
532.0
529.0
528.0
526.0
525.0
523.0
522.0
522.0
520.0
518.0
515.0
509.0
503.0
499.0
495.0
492.0
490.0
488.0
488.0
490.0
490.0
490.0
491.0
492.0
491.0
490.0
490.0
488.0
486.0
482.0
479.0
475.0
472.0
468.0
464.0
461.0
458.0
454.0
451.0
447.0
445.0
442.0
439.0
437.0
435.0
432.0
431.0
430.0
427.0
426.0
425.0
424.0
421.0
419.0
419.0
418.0
417.0
416.0
413.0
411.0
409.0
409.0
407.0
406.0
406.0
407.0
413.0
425.0
439.0
455.0
471.0
485.0
496.0
503.0
510.0
514.0
514.0
514.0
513.0
512.0
510.0
507.0
505.0
503.0
500.0
498.0
497.0
495.0
492.0
491.0
490.0
489.0
487.0
483.0
479.0
474.0
470.0
466.0
464.0
463.0
463.0
462.0
464.0
465.0
466.0
468.0
468.0
468.0
467.0
465.0
464.0
462.0
461.0
458.0
456.0
452.0
449.0
446.0
442.0
439.0
435.0
432.0
429.0
427.0
426.0
423.0
422.0
419.0
417.0
416.0
413.0
412.0
410.0
409.0
408.0
406.0
405.0
404.0
403.0
402.0
400.0
398.0
396.0
395.0
392.0
390.0
390.0
388.0
385.0
382.0
381.0
381.0
381.0
384.0
393.0
406.0
422.0
439.0
453.0
467.0
478.0
485.0
490.0
492.0
491.0
490.0
486.0
483.0
479.0
474.0
472.0
469.0
467.0
465.0
465.0
464.0
463.0
462.0
461.0
458.0
455.0
451.0
447.0
444.0
443.0
442.0
441.0
441.0
442.0
442.0
443.0
444.0
445.0
446.0
447.0
448.0
448.0
446.0
445.0
444.0
440.0
439.0
437.0
434.0
432.0
428.0
426.0
423.0
420.0
416.0
414.0
410.0
408.0
407.0
405.0
403.0
402.0
400.0
399.0
397.0
395.0
393.0
392.0
390.0
390.0
388.0
388.0
388.0
385.0
383.0
382.0
380.0
378.0
377.0
377.0
376.0
375.0
375.0
373.0
371.0
370.0
368.0
365.0
363.0
363.0
361.0
364.0
371.0
385.0
402.0
420.0
437.0
450.0
459.0
468.0
474.0
476.0
476.0
476.0
474.0
471.0
468.0
464.0
460.0
457.0
453.0
450.0
449.0
447.0
446.0
445.0
445.0
443.0
440.0
437.0
435.0
431.0
428.0
426.0
424.0
422.0
422.0
424.0
426.0
428.0
430.0
431.0
432.0
433.0
433.0
432.0
430.0
428.0
424.0
422.0
420.0
416.0
414.0
413.0
411.0
408.0
405.0
402.0
400.0
397.0
395.0
391.0
389.0
388.0
388.0
384.0
383.0
382.0
381.0
382.0
381.0
380.0
378.0
378.0
377.0
375.0
373.0
372.0
371.0
369.0
368.0
367.0
366.0
366.0
364.0
364.0
362.0
361.0
360.0
359.0
356.0
354.0
352.0
349.0
348.0
346.0
344.0
343.0
342.0
343.0
346.0
357.0
374.0
392.0
411.0
428.0
443.0
453.0
461.0
465.0
467.0
467.0
466.0
464.0
461.0
457.0
454.0
450.0
447.0
444.0
441.0
440.0
438.0
436.0
435.0
435.0
434.0
431.0
429.0
425.0
421.0
418.0
417.0
416.0
415.0
415.0
416.0
417.0
421.0
423.0
424.0
425.0
426.0
425.0
423.0
421.0
419.0
417.0
415.0
414.0
412.0
410.0
407.0
405.0
401.0
399.0
395.0
393.0
389.0
387.0
386.0
385.0
383.0
382.0
381.0
379.0
378.0
377.0
375.0
374.0
373.0
371.0
369.0
370.0
369.0
368.0
368.0
368.0
366.0
366.0
365.0
363.0
362.0
360.0
358.0
358.0
357.0
356.0
355.0
354.0
354.0
351.0
349.0
348.0
347.0
346.0
345.0
345.0
343.0
341.0
340.0
339.0
340.0
346.0
358.0
377.0
397.0
413.0
427.0
439.0
448.0
454.0
458.0
461.0
462.0
462.0
460.0
458.0
456.0
453.0
448.0
445.0
442.0
439.0
437.0
436.0
434.0
434.0
433.0
431.0
429.0
426.0
422.0
419.0
417.0
416.0
416.0
417.0
418.0
419.0
420.0
423.0
425.0
425.0
426.0
427.0
427.0
426.0
425.0
423.0
421.0
418.0
415.0
412.0
408.0
405.0
403.0
401.0
400.0
397.0
395.0
393.0
390.0
388.0
385.0
383.0
380.0
377.0
376.0
376.0
375.0
375.0
375.0
377.0
377.0
376.0
377.0
377.0
377.0
377.0
375.0
374.0
373.0
372.0
369.0
366.0
363.0
359.0
354.0
350.0
347.0
344.0
343.0
345.0
347.0
349.0
349.0
349.0
346.0
345.0
342.0
341.0
341.0
347.0
359.0
376.0
394.0
409.0
421.0
430.0
436.0
441.0
442.0
442.0
440.0
436.0
432.0
427.0
425.0
424.0
423.0
422.0
422.0
422.0
423.0
425.0
427.0
428.0
428.0
428.0
426.0
424.0
422.0
420.0
418.0
418.0
419.0
420.0
422.0
425.0
427.0
430.0
433.0
435.0
435.0
436.0
435.0
434.0
434.0
433.0
431.0
428.0
426.0
424.0
421.0
419.0
417.0
416.0
414.0
412.0
411.0
411.0
410.0
409.0
408.0
406.0
406.0
403.0
401.0
401.0
401.0
400.0
398.0
398.0
396.0
396.0
394.0
392.0
391.0
390.0
391.0
392.0
391.0
390.0
389.0
387.0
385.0
381.0
377.0
374.0
371.0
369.0
369.0
368.0
369.0
372.0
381.0
398.0
415.0
431.0
445.0
455.0
464.0
470.0
474.0
475.0
474.0
471.0
468.0
463.0
457.0
451.0
445.0
440.0
436.0
432.0
429.0
425.0
422.0
419.0
416.0
414.0
411.0
406.0
403.0
401.0
401.0
402.0
404.0
408.0
412.0
416.0
419.0
421.0
423.0
423.0
423.0
423.0
422.0
420.0
418.0
416.0
413.0
410.0
405.0
401.0
396.0
390.0
385.0
380.0
377.0
372.0
368.0
365.0
364.0
362.0
360.0
359.0
358.0
357.0
356.0
355.0
354.0
354.0
354.0
354.0
354.0
353.0
353.0
354.0
354.0
355.0
354.0
355.0
354.0
354.0
354.0
354.0
354.0
359.0
369.0
388.0
410.0
431.0
448.0
462.0
471.0
478.0
483.0
486.0
486.0
484.0
481.0
476.0
472.0
467.0
463.0
458.0
453.0
448.0
444.0
440.0
436.0
431.0
427.0
424.0
422.0
418.0
415.0
413.0
409.0
408.0
408.0
409.0
410.0
413.0
417.0
423.0
427.0
431.0
433.0
434.0
434.0
433.0
431.0
429.0
427.0
424.0
421.0
417.0
415.0
413.0
410.0
406.0
402.0
398.0
396.0
394.0
391.0
391.0
390.0
390.0
390.0
389.0
389.0
389.0
387.0
384.0
382.0
380.0
379.0
379.0
378.0
379.0
380.0
384.0
391.0
405.0
423.0
441.0
456.0
470.0
482.0
490.0
497.0
501.0
502.0
502.0
501.0
499.0
494.0
489.0
486.0
482.0
479.0
475.0
471.0
469.0
467.0
466.0
463.0
462.0
457.0
453.0
450.0
447.0
443.0
440.0
438.0
439.0
438.0
440.0
441.0
444.0
448.0
452.0
455.0
459.0
461.0
463.0
463.0
463.0
461.0
458.0
454.0
450.0
445.0
442.0
439.0
436.0
433.0
429.0
427.0
425.0
422.0
419.0
416.0
413.0
411.0
409.0
408.0
407.0
405.0
405.0
403.0
401.0
401.0
400.0
398.0
397.0
395.0
394.0
396.0
402.0
416.0
435.0
454.0
473.0
491.0
503.0
512.0
518.0
521.0
522.0
521.0
519.0
515.0
511.0
507.0
503.0
497.0
494.0
491.0
489.0
487.0
486.0
486.0
485.0
485.0
483.0
481.0
479.0
474.0
470.0
466.0
464.0
461.0
460.0
460.0
461.0
462.0
464.0
466.0
466.0
466.0
466.0
464.0
465.0
463.0
463.0
462.0
461.0
458.0
455.0
452.0
447.0
442.0
439.0
437.0
435.0
432.0
431.0
428.0
427.0
426.0
423.0
421.0
420.0
419.0
418.0
417.0
416.0
415.0
413.0
411.0
411.0
410.0
408.0
407.0
406.0
406.0
407.0
412.0
422.0
438.0
456.0
472.0
487.0
500.0
512.0
519.0
523.0
524.0
525.0
523.0
521.0
518.0
514.0
510.0
507.0
503.0
501.0
500.0
498.0
497.0
496.0
494.0
493.0
489.0
485.0
480.0
476.0
472.0
468.0
465.0
464.0
463.0
462.0
462.0
464.0
464.0
464.0
465.0
466.0
467.0
467.0
466.0
464.0
461.0
459.0
456.0
453.0
448.0
446.0
443.0
440.0
437.0
435.0
432.0
430.0
427.0
425.0
421.0
419.0
418.0
417.0
416.0
414.0
412.0
411.0
410.0
408.0
406.0
404.0
402.0
401.0
399.0
398.0
396.0
394.0
393.0
392.0
391.0
389.0
388.0
390.0
398.0
413.0
434.0
453.0
471.0
486.0
499.0
508.0
514.0
517.0
517.0
517.0
515.0
513.0
509.0
503.0
499.0
495.0
492.0
488.0
485.0
482.0
481.0
480.0
479.0
478.0
475.0
471.0
467.0
462.0
458.0
456.0
455.0
455.0
455.0
455.0
457.0
460.0
461.0
463.0
463.0
463.0
463.0
462.0
461.0
459.0
457.0
454.0
450.0
449.0
446.0
442.0
438.0
435.0
433.0
431.0
428.0
426.0
423.0
421.0
418.0
416.0
413.0
411.0
409.0
409.0
408.0
408.0
407.0
406.0
404.0
403.0
400.0
399.0
397.0
395.0
394.0
393.0
392.0
391.0
390.0
390.0
389.0
388.0
392.0
404.0
421.0
441.0
461.0
480.0
495.0
507.0
515.0
520.0
522.0
522.0
521.0
521.0
517.0
513.0
508.0
505.0
502.0
499.0
497.0
494.0
493.0
492.0
491.0
491.0
488.0
485.0
481.0
477.0
472.0
469.0
466.0
464.0
464.0
464.0
466.0
468.0
470.0
472.0
474.0
475.0
475.0
474.0
472.0
470.0
468.0
465.0
463.0
462.0
460.0
457.0
453.0
450.0
447.0
442.0
439.0
436.0
434.0
431.0
428.0
427.0
424.0
423.0
422.0
420.0
418.0
417.0
416.0
415.0
415.0
415.0
413.0
413.0
411.0
410.0
408.0
406.0
405.0
404.0
405.0
404.0
403.0
402.0
401.0
400.0
398.0
397.0
394.0
392.0
391.0
391.0
390.0
388.0
387.0
387.0
391.0
406.0
426.0
450.0
472.0
489.0
503.0
515.0
523.0
528.0
530.0
528.0
525.0
521.0
516.0
511.0
507.0
503.0
501.0
497.0
496.0
495.0
494.0
493.0
492.0
491.0
488.0
486.0
482.0
479.0
477.0
475.0
474.0
473.0
473.0
474.0
475.0
476.0
478.0
480.0
482.0
483.0
484.0
484.0
484.0
483.0
480.0
476.0
473.0
469.0
465.0
464.0
461.0
458.0
456.0
453.0
451.0
449.0
448.0
446.0
444.0
442.0
439.0
438.0
437.0
437.0
435.0
434.0
434.0
433.0
432.0
431.0
428.0
427.0
427.0
428.0
427.0
424.0
421.0
419.0
417.0
416.0
414.0
412.0
410.0
409.0
407.0
404.0
403.0
402.0
399.0
397.0
395.0
393.0
393.0
393.0
393.0
394.0
398.0
409.0
425.0
444.0
462.0
477.0
489.0
498.0
505.0
511.0
513.0
515.0
513.0
511.0
506.0
502.0
497.0
491.0
486.0
482.0
476.0
472.0
468.0
463.0
458.0
453.0
449.0
445.0
441.0
438.0
437.0
437.0
439.0
440.0
443.0
445.0
449.0
453.0
455.0
456.0
456.0
456.0
456.0
457.0
455.0
452.0
449.0
445.0
441.0
437.0
433.0
430.0
427.0
426.0
425.0
424.0
422.0
421.0
420.0
419.0
415.0
411.0
408.0
406.0
405.0
404.0
404.0
403.0
402.0
402.0
402.0
400.0
398.0
395.0
392.0
392.0
392.0
390.0
389.0
387.0
385.0
383.0
381.0
380.0
381.0
387.0
399.0
417.0
435.0
449.0
462.0
474.0
480.0
484.0
486.0
487.0
488.0
486.0
483.0
479.0
476.0
472.0
466.0
461.0
454.0
448.0
443.0
439.0
436.0
432.0
427.0
423.0
419.0
415.0
413.0
411.0
410.0
410.0
412.0
415.0
420.0
425.0
428.0
432.0
434.0
434.0
434.0
433.0
432.0
429.0
426.0
423.0
420.0
417.0
414.0
411.0
408.0
403.0
399.0
396.0
393.0
389.0
385.0
383.0
381.0
379.0
378.0
376.0
375.0
372.0
370.0
369.0
368.0
366.0
365.0
365.0
365.0
364.0
364.0
364.0
363.0
362.0
362.0
361.0
360.0
359.0
358.0
357.0
355.0
354.0
352.0
350.0
349.0
350.0
358.0
374.0
398.0
424.0
446.0
467.0
483.0
496.0
505.0
510.0
512.0
511.0
509.0
506.0
503.0
499.0
497.0
494.0
489.0
485.0
482.0
481.0
479.0
475.0
473.0
471.0
470.0
468.0
467.0
464.0
461.0
459.0
455.0
454.0
452.0
451.0
450.0
450.0
452.0
454.0
456.0
457.0
459.0
459.0
460.0
460.0
458.0
456.0
452.0
450.0
448.0
447.0
444.0
442.0
439.0
436.0
432.0
429.0
427.0
423.0
420.0
418.0
416.0
414.0
412.0
410.0
408.0
406.0
404.0
402.0
400.0
398.0
398.0
398.0
398.0
397.0
396.0
395.0
393.0
392.0
390.0
389.0
388.0
386.0
384.0
384.0
383.0
382.0
380.0
377.0
375.0
373.0
371.0
370.0
369.0
368.0
371.0
381.0
400.0
425.0
449.0
469.0
487.0
500.0
511.0
519.0
523.0
524.0
523.0
521.0
518.0
514.0
509.0
504.0
500.0
496.0
493.0
492.0
490.0
487.0
487.0
486.0
485.0
483.0
481.0
477.0
473.0
470.0
468.0
466.0
464.0
463.0
462.0
462.0
463.0
463.0
465.0
467.0
468.0
469.0
470.0
470.0
470.0
469.0
466.0
463.0
459.0
456.0
452.0
449.0
446.0
444.0
439.0
437.0
434.0
430.0
427.0
424.0
421.0
418.0
415.0
414.0
413.0
411.0
409.0
409.0
407.0
406.0
405.0
403.0
402.0
401.0
400.0
400.0
398.0
396.0
395.0
394.0
392.0
390.0
388.0
386.0
383.0
382.0
382.0
381.0
379.0
378.0
376.0
375.0
373.0
372.0
370.0
367.0
366.0
365.0
364.0
362.0
359.0
359.0
364.0
376.0
397.0
423.0
447.0
469.0
488.0
503.0
515.0
523.0
528.0
530.0
530.0
528.0
524.0
519.0
514.0
508.0
503.0
498.0
495.0
493.0
490.0
488.0
486.0
484.0
483.0
481.0
478.0
475.0
471.0
468.0
466.0
464.0
463.0
462.0
462.0
463.0
464.0
466.0
468.0
470.0
472.0
472.0
473.0
474.0
473.0
470.0
468.0
466.0
462.0
459.0
455.0
451.0
448.0
445.0
441.0
438.0
434.0
432.0
430.0
428.0
425.0
422.0
418.0
416.0
413.0
412.0
410.0
409.0
408.0
406.0
403.0
402.0
402.0
402.0
400.0
400.0
398.0
397.0
396.0
394.0
392.0
389.0
387.0
387.0
384.0
384.0
381.0
381.0
380.0
379.0
378.0
377.0
374.0
372.0
370.0
370.0
369.0
367.0
365.0
363.0
362.0
361.0
359.0
358.0
357.0
361.0
373.0
395.0
422.0
449.0
472.0
491.0
505.0
517.0
525.0
531.0
532.0
530.0
528.0
526.0
522.0
518.0
513.0
508.0
503.0
497.0
495.0
491.0
489.0
486.0
484.0
483.0
481.0
481.0
478.0
475.0
472.0
469.0
467.0
466.0
466.0
466.0
467.0
469.0
470.0
473.0
475.0
478.0
479.0
479.0
478.0
477.0
475.0
472.0
467.0
465.0
463.0
459.0
454.0
451.0
447.0
444.0
440.0
436.0
433.0
429.0
426.0
424.0
422.0
419.0
417.0
415.0
412.0
410.0
408.0
406.0
404.0
403.0
402.0
401.0
400.0
400.0
398.0
397.0
395.0
394.0
393.0
392.0
391.0
390.0
388.0
388.0
387.0
386.0
385.0
383.0
381.0
380.0
379.0
377.0
376.0
375.0
373.0
374.0
373.0
371.0
368.0
367.0
365.0
363.0
361.0
361.0
366.0
380.0
400.0
428.0
453.0
477.0
494.0
508.0
519.0
526.0
530.0
533.0
532.0
530.0
526.0
523.0
518.0
514.0
507.0
503.0
498.0
493.0
489.0
487.0
484.0
482.0
480.0
476.0
473.0
468.0
464.0
461.0
458.0
457.0
457.0
461.0
464.0
467.0
470.0
474.0
477.0
480.0
482.0
483.0
483.0
482.0
479.0
477.0
475.0
471.0
466.0
462.0
458.0
455.0
453.0
450.0
446.0
442.0
438.0
436.0
433.0
430.0
427.0
424.0
421.0
420.0
418.0
418.0
415.0
413.0
411.0
410.0
407.0
406.0
405.0
403.0
402.0
402.0
402.0
401.0
400.0
399.0
398.0
395.0
395.0
394.0
392.0
392.0
391.0
390.0
387.0
386.0
382.0
379.0
377.0
377.0
381.0
390.0
405.0
427.0
451.0
474.0
492.0
507.0
518.0
525.0
530.0
534.0
535.0
534.0
532.0
527.0
522.0
518.0
511.0
506.0
500.0
494.0
489.0
485.0
482.0
480.0
477.0
473.0
469.0
464.0
459.0
456.0
453.0
453.0
455.0
458.0
461.0
466.0
470.0
475.0
481.0
485.0
486.0
488.0
487.0
487.0
484.0
481.0
478.0
474.0
470.0
466.0
463.0
459.0
454.0
451.0
446.0
442.0
436.0
433.0
429.0
427.0
425.0
422.0
420.0
419.0
416.0
415.0
413.0
410.0
408.0
406.0
405.0
405.0
404.0
404.0
403.0
401.0
400.0
400.0
400.0
399.0
397.0
396.0
396.0
396.0
395.0
394.0
393.0
391.0
389.0
387.0
385.0
383.0
380.0
378.0
379.0
385.0
397.0
418.0
442.0
469.0
490.0
508.0
522.0
534.0
543.0
550.0
554.0
556.0
555.0
554.0
550.0
547.0
542.0
538.0
533.0
528.0
525.0
523.0
522.0
522.0
522.0
521.0
519.0
516.0
512.0
510.0
506.0
503.0
500.0
499.0
499.0
500.0
501.0
503.0
505.0
508.0
511.0
511.0
513.0
513.0
511.0
510.0
508.0
506.0
503.0
499.0
495.0
491.0
487.0
484.0
481.0
476.0
472.0
470.0
466.0
463.0
460.0
457.0
454.0
452.0
449.0
447.0
446.0
444.0
441.0
441.0
439.0
438.0
437.0
436.0
434.0
432.0
431.0
430.0
428.0
426.0
425.0
424.0
423.0
421.0
420.0
419.0
418.0
415.0
413.0
412.0
411.0
410.0
408.0
406.0
404.0
402.0
399.0
394.0
391.0
390.0
392.0
401.0
417.0
439.0
464.0
490.0
512.0
528.0
541.0
552.0
559.0
563.0
566.0
567.0
565.0
563.0
560.0
556.0
553.0
548.0
544.0
541.0
538.0
536.0
533.0
533.0
532.0
532.0
528.0
526.0
522.0
518.0
514.0
511.0
508.0
507.0
506.0
507.0
506.0
507.0
508.0
511.0
513.0
515.0
517.0
518.0
517.0
514.0
511.0
508.0
504.0
501.0
497.0
493.0
488.0
485.0
481.0
479.0
474.0
471.0
467.0
465.0
462.0
460.0
457.0
454.0
451.0
449.0
445.0
444.0
443.0
441.0
440.0
439.0
438.0
436.0
435.0
434.0
433.0
431.0
429.0
427.0
426.0
424.0
422.0
421.0
419.0
417.0
415.0
413.0
412.0
409.0
408.0
406.0
404.0
401.0
399.0
400.0
397.0
397.0
394.0
393.0
392.0
390.0
389.0
386.0
384.0
382.0
379.0
377.0
376.0
377.0
379.0
390.0
407.0
432.0
460.0
486.0
508.0
525.0
539.0
550.0
558.0
564.0
568.0
570.0
569.0
567.0
564.0
561.0
556.0
552.0
548.0
545.0
541.0
539.0
536.0
536.0
533.0
530.0
528.0
527.0
523.0
518.0
513.0
510.0
508.0
507.0
506.0
506.0
507.0
509.0
512.0
515.0
517.0
519.0
519.0
518.0
517.0
514.0
511.0
508.0
505.0
503.0
501.0
497.0
494.0
489.0
484.0
481.0
477.0
474.0
471.0
468.0
465.0
463.0
460.0
458.0
457.0
453.0
451.0
449.0
447.0
446.0
445.0
444.0
443.0
442.0
441.0
440.0
439.0
437.0
434.0
433.0
430.0
429.0
427.0
426.0
425.0
423.0
421.0
419.0
417.0
414.0
411.0
409.0
406.0
404.0
402.0
400.0
398.0
396.0
394.0
392.0
390.0
389.0
386.0
384.0
382.0
381.0
380.0
379.0
377.0
376.0
374.0
372.0
371.0
369.0
366.0
364.0
364.0
367.0
377.0
394.0
418.0
445.0
471.0
495.0
514.0
528.0
539.0
547.0
552.0
555.0
556.0
556.0
553.0
550.0
545.0
541.0
537.0
532.0
528.0
525.0
523.0
521.0
520.0
519.0
519.0
516.0
514.0
510.0
505.0
501.0
497.0
495.0
495.0
496.0
497.0
499.0
500.0
503.0
506.0
508.0
510.0
510.0
509.0
507.0
507.0
505.0
503.0
499.0
495.0
491.0
486.0
483.0
479.0
475.0
471.0
468.0
466.0
463.0
460.0
458.0
455.0
454.0
450.0
448.0
446.0
444.0
442.0
441.0
440.0
438.0
437.0
436.0
434.0
433.0
430.0
429.0
429.0
426.0
425.0
424.0
423.0
421.0
419.0
418.0
416.0
414.0
411.0
409.0
406.0
405.0
404.0
402.0
400.0
398.0
396.0
394.0
391.0
388.0
387.0
384.0
383.0
381.0
379.0
377.0
377.0
375.0
375.0
373.0
370.0
368.0
365.0
361.0
360.0
357.0
354.0
351.0
349.0
353.0
362.0
379.0
402.0
429.0
457.0
485.0
507.0
523.0
534.0
543.0
548.0
552.0
554.0
554.0
551.0
547.0
543.0
539.0
534.0
528.0
523.0
520.0
517.0
515.0
513.0
511.0
510.0
508.0
505.0
502.0
497.0
494.0
490.0
488.0
488.0
488.0
489.0
490.0
492.0
495.0
497.0
500.0
501.0
502.0
503.0
502.0
502.0
500.0
496.0
494.0
489.0
485.0
479.0
476.0
472.0
469.0
465.0
462.0
458.0
454.0
450.0
448.0
444.0
441.0
438.0
436.0
434.0
432.0
430.0
429.0
428.0
426.0
424.0
423.0
421.0
419.0
418.0
416.0
415.0
414.0
413.0
412.0
409.0
408.0
406.0
404.0
401.0
399.0
397.0
395.0
394.0
392.0
390.0
387.0
384.0
382.0
380.0
378.0
376.0
374.0
371.0
370.0
369.0
366.0
365.0
364.0
361.0
360.0
358.0
356.0
354.0
352.0
350.0
349.0
348.0
347.0
345.0
349.0
359.0
377.0
402.0
430.0
457.0
482.0
504.0
520.0
533.0
543.0
549.0
552.0
552.0
551.0
549.0
545.0
540.0
535.0
530.0
526.0
521.0
517.0
513.0
510.0
507.0
506.0
503.0
501.0
497.0
492.0
489.0
487.0
484.0
483.0
482.0
483.0
485.0
487.0
489.0
491.0
493.0
495.0
497.0
497.0
497.0
498.0
496.0
494.0
491.0
488.0
484.0
480.0
476.0
473.0
468.0
464.0
460.0
457.0
455.0
452.0
448.0
445.0
442.0
440.0
437.0
435.0
432.0
431.0
430.0
428.0
425.0
424.0
422.0
421.0
420.0
420.0
417.0
416.0
414.0
414.0
412.0
410.0
408.0
407.0
405.0
403.0
402.0
400.0
398.0
397.0
395.0
393.0
391.0
389.0
387.0
385.0
383.0
380.0
378.0
377.0
374.0
374.0
372.0
371.0
369.0
367.0
364.0
363.0
361.0
357.0
356.0
354.0
353.0
352.0
352.0
356.0
367.0
385.0
412.0
440.0
466.0
492.0
515.0
534.0
547.0
557.0
562.0
565.0
566.0
565.0
562.0
557.0
551.0
545.0
540.0
537.0
532.0
528.0
524.0
522.0
520.0
517.0
515.0
512.0
507.0
504.0
499.0
496.0
494.0
494.0
494.0
495.0
497.0
499.0
502.0
505.0
506.0
508.0
510.0
511.0
511.0
509.0
508.0
506.0
504.0
501.0
498.0
494.0
489.0
485.0
482.0
478.0
473.0
469.0
466.0
462.0
458.0
455.0
453.0
451.0
448.0
446.0
443.0
443.0
441.0
440.0
438.0
436.0
435.0
433.0
430.0
429.0
428.0
426.0
426.0
425.0
422.0
421.0
419.0
417.0
416.0
415.0
413.0
412.0
409.0
407.0
404.0
404.0
402.0
400.0
398.0
396.0
394.0
392.0
390.0
389.0
386.0
384.0
383.0
381.0
380.0
378.0
375.0
373.0
370.0
367.0
365.0
362.0
361.0
361.0
367.0
380.0
401.0
427.0
453.0
480.0
507.0
529.0
547.0
559.0
567.0
571.0
574.0
574.0
572.0
568.0
562.0
559.0
553.0
549.0
544.0
540.0
537.0
533.0
530.0
529.0
527.0
525.0
522.0
519.0
514.0
511.0
508.0
505.0
505.0
505.0
506.0
508.0
509.0
512.0
514.0
517.0
519.0
520.0
521.0
520.0
520.0
518.0
516.0
512.0
508.0
504.0
500.0
496.0
492.0
488.0
484.0
480.0
477.0
473.0
469.0
465.0
462.0
459.0
455.0
451.0
449.0
447.0
447.0
446.0
445.0
442.0
440.0
438.0
436.0
435.0
433.0
432.0
431.0
429.0
428.0
427.0
425.0
424.0
421.0
420.0
416.0
415.0
412.0
410.0
408.0
407.0
405.0
403.0
401.0
399.0
396.0
395.0
393.0
390.0
388.0
387.0
385.0
383.0
383.0
381.0
379.0
377.0
374.0
372.0
369.0
366.0
364.0
362.0
366.0
377.0
396.0
421.0
448.0
475.0
498.0
522.0
543.0
556.0
566.0
572.0
576.0
577.0
576.0
575.0
571.0
568.0
561.0
556.0
550.0
546.0
541.0
537.0
535.0
533.0
531.0
529.0
527.0
524.0
520.0
516.0
512.0
509.0
508.0
508.0
509.0
511.0
514.0
517.0
518.0
521.0
522.0
524.0
525.0
525.0
524.0
522.0
520.0
518.0
514.0
511.0
507.0
502.0
497.0
493.0
488.0
484.0
481.0
478.0
474.0
470.0
467.0
464.0
461.0
458.0
455.0
452.0
450.0
447.0
445.0
443.0
443.0
441.0
441.0
439.0
438.0
436.0
435.0
433.0
432.0
431.0
429.0
427.0
425.0
424.0
423.0
421.0
419.0
418.0
414.0
413.0
411.0
409.0
407.0
405.0
402.0
401.0
399.0
398.0
396.0
395.0
392.0
391.0
388.0
386.0
384.0
383.0
380.0
378.0
374.0
374.0
374.0
378.0
388.0
406.0
429.0
455.0
480.0
506.0
529.0
548.0
563.0
572.0
578.0
582.0
583.0
583.0
580.0
577.0
572.0
568.0
564.0
560.0
556.0
552.0
549.0
546.0
543.0
542.0
540.0
538.0
535.0
532.0
529.0
525.0
523.0
522.0
521.0
522.0
522.0
523.0
525.0
528.0
529.0
533.0
534.0
534.0
534.0
533.0
531.0
529.0
525.0
522.0
517.0
513.0
509.0
505.0
500.0
497.0
494.0
490.0
486.0
482.0
479.0
476.0
473.0
470.0
468.0
465.0
463.0
461.0
458.0
457.0
455.0
453.0
450.0
449.0
448.0
447.0
446.0
444.0
443.0
441.0
439.0
438.0
436.0
435.0
434.0
431.0
429.0
428.0
426.0
425.0
423.0
420.0
418.0
416.0
414.0
412.0
410.0
408.0
407.0
406.0
404.0
403.0
401.0
398.0
395.0
392.0
390.0
387.0
384.0
384.0
387.0
396.0
411.0
433.0
457.0
482.0
506.0
528.0
547.0
561.0
572.0
580.0
585.0
587.0
587.0
586.0
583.0
580.0
575.0
570.0
565.0
561.0
558.0
556.0
554.0
552.0
549.0
548.0
546.0
542.0
536.0
532.0
528.0
526.0
524.0
524.0
525.0
525.0
527.0
528.0
529.0
531.0
533.0
534.0
534.0
534.0
532.0
531.0
528.0
527.0
522.0
519.0
515.0
510.0
504.0
501.0
497.0
493.0
490.0
487.0
482.0
480.0
475.0
473.0
470.0
467.0
464.0
462.0
460.0
458.0
455.0
453.0
451.0
449.0
447.0
446.0
444.0
443.0
441.0
440.0
438.0
436.0
434.0
433.0
430.0
430.0
427.0
424.0
422.0
421.0
418.0
417.0
415.0
414.0
412.0
410.0
407.0
405.0
404.0
403.0
402.0
399.0
396.0
395.0
392.0
390.0
387.0
385.0
382.0
379.0
377.0
376.0
375.0
377.0
383.0
398.0
418.0
442.0
465.0
489.0
512.0
534.0
551.0
564.0
572.0
578.0
580.0
580.0
578.0
575.0
571.0
568.0
562.0
559.0
555.0
552.0
549.0
547.0
545.0
543.0
541.0
539.0
535.0
531.0
526.0
524.0
520.0
519.0
518.0
517.0
517.0
518.0
520.0
521.0
522.0
524.0
524.0
524.0
524.0
523.0
521.0
520.0
517.0
515.0
511.0
507.0
503.0
499.0
495.0
491.0
486.0
483.0
480.0
477.0
473.0
469.0
466.0
463.0
460.0
457.0
455.0
452.0
451.0
450.0
447.0
445.0
443.0
441.0
440.0
438.0
436.0
435.0
433.0
432.0
430.0
430.0
428.0
426.0
424.0
422.0
420.0
417.0
416.0
414.0
411.0
408.0
406.0
405.0
402.0
400.0
397.0
395.0
393.0
392.0
391.0
390.0
388.0
386.0
385.0
384.0
382.0
380.0
376.0
374.0
371.0
368.0
367.0
368.0
372.0
386.0
405.0
429.0
454.0
478.0
502.0
524.0
541.0
554.0
564.0
571.0
574.0
576.0
576.0
575.0
573.0
570.0
565.0
560.0
555.0
552.0
549.0
546.0
544.0
542.0
540.0
539.0
536.0
533.0
528.0
523.0
520.0
517.0
515.0
514.0
513.0
515.0
517.0
519.0
521.0
521.0
522.0
523.0
523.0
522.0
521.0
520.0
518.0
515.0
511.0
507.0
503.0
498.0
494.0
489.0
485.0
480.0
476.0
473.0
470.0
467.0
463.0
460.0
457.0
454.0
451.0
448.0
445.0
444.0
442.0
440.0
439.0
439.0
437.0
435.0
434.0
433.0
431.0
428.0
426.0
424.0
421.0
419.0
418.0
417.0
415.0
414.0
412.0
409.0
406.0
405.0
402.0
400.0
398.0
395.0
394.0
392.0
390.0
389.0
386.0
384.0
381.0
379.0
379.0
378.0
374.0
372.0
369.0
369.0
366.0
366.0
365.0
366.0
374.0
390.0
411.0
434.0
458.0
483.0
507.0
527.0
543.0
555.0
563.0
568.0
571.0
572.0
570.0
568.0
565.0
560.0
556.0
552.0
547.0
544.0
541.0
538.0
535.0
532.0
530.0
528.0
524.0
521.0
516.0
512.0
508.0
507.0
504.0
504.0
504.0
505.0
506.0
508.0
510.0
512.0
513.0
514.0
514.0
514.0
511.0
510.0
506.0
503.0
499.0
493.0
489.0
485.0
481.0
478.0
474.0
470.0
466.0
463.0
459.0
455.0
452.0
448.0
445.0
443.0
441.0
438.0
436.0
435.0
433.0
432.0
429.0
428.0
426.0
424.0
422.0
421.0
419.0
417.0
416.0
415.0
414.0
412.0
409.0
407.0
405.0
404.0
402.0
400.0
398.0
395.0
393.0
390.0
390.0
389.0
386.0
384.0
381.0
379.0
378.0
376.0
374.0
372.0
369.0
368.0
366.0
363.0
360.0
358.0
356.0
357.0
361.0
375.0
395.0
419.0
444.0
469.0
493.0
514.0
531.0
544.0
554.0
559.0
565.0
567.0
567.0
565.0
563.0
559.0
555.0
551.0
546.0
543.0
539.0
536.0
536.0
533.0
530.0
529.0
525.0
521.0
516.0
512.0
508.0
505.0
504.0
503.0
503.0
504.0
506.0
508.0
509.0
510.0
510.0
511.0
510.0
510.0
509.0
507.0
504.0
500.0
496.0
491.0
488.0
484.0
479.0
475.0
470.0
466.0
462.0
458.0
454.0
451.0
448.0
446.0
442.0
439.0
436.0
434.0
432.0
430.0
428.0
425.0
424.0
423.0
422.0
421.0
420.0
418.0
416.0
414.0
413.0
411.0
409.0
407.0
406.0
405.0
404.0
402.0
400.0
398.0
396.0
395.0
393.0
392.0
391.0
389.0
388.0
386.0
385.0
383.0
380.0
378.0
376.0
374.0
371.0
368.0
366.0
364.0
363.0
365.0
372.0
386.0
406.0
429.0
452.0
475.0
496.0
516.0
532.0
545.0
554.0
559.0
563.0
563.0
561.0
559.0
555.0
550.0
544.0
540.0
534.0
530.0
527.0
526.0
522.0
519.0
515.0
511.0
506.0
501.0
496.0
493.0
491.0
490.0
490.0
490.0
492.0
495.0
499.0
503.0
504.0
506.0
508.0
507.0
507.0
506.0
503.0
502.0
499.0
496.0
492.0
489.0
484.0
480.0
475.0
471.0
467.0
463.0
459.0
456.0
452.0
449.0
446.0
444.0
440.0
438.0
436.0
434.0
431.0
429.0
427.0
425.0
424.0
423.0
422.0
420.0
418.0
417.0
416.0
415.0
413.0
410.0
410.0
408.0
408.0
407.0
405.0
404.0
402.0
400.0
397.0
394.0
391.0
389.0
386.0
382.0
379.0
376.0
375.0
375.0
378.0
386.0
401.0
420.0
442.0
464.0
485.0
504.0
521.0
534.0
545.0
553.0
558.0
560.0
560.0
558.0
555.0
552.0
548.0
542.0
537.0
533.0
529.0
524.0
522.0
519.0
516.0
512.0
507.0
502.0
496.0
492.0
489.0
487.0
486.0
486.0
487.0
489.0
491.0
493.0
494.0
495.0
497.0
498.0
498.0
497.0
495.0
493.0
491.0
489.0
485.0
482.0
477.0
473.0
469.0
464.0
461.0
456.0
453.0
449.0
445.0
442.0
440.0
437.0
433.0
430.0
427.0
425.0
423.0
421.0
419.0
418.0
415.0
414.0
412.0
411.0
411.0
409.0
407.0
406.0
404.0
403.0
401.0
399.0
397.0
395.0
394.0
392.0
390.0
390.0
388.0
386.0
384.0
383.0
380.0
379.0
376.0
373.0
371.0
370.0
367.0
364.0
362.0
360.0
359.0
362.0
371.0
388.0
410.0
435.0
460.0
485.0
509.0
529.0
545.0
558.0
567.0
572.0
575.0
575.0
574.0
571.0
568.0
566.0
562.0
557.0
554.0
551.0
549.0
548.0
545.0
545.0
543.0
541.0
537.0
533.0
529.0
525.0
521.0
518.0
516.0
515.0
514.0
514.0
515.0
515.0
515.0
517.0
518.0
518.0
518.0
517.0
516.0
514.0
511.0
507.0
503.0
499.0
495.0
491.0
487.0
482.0
478.0
474.0
468.0
465.0
461.0
457.0
454.0
451.0
448.0
446.0
444.0
442.0
439.0
437.0
434.0
432.0
429.0
428.0
427.0
424.0
423.0
422.0
420.0
418.0
416.0
414.0
412.0
410.0
408.0
406.0
404.0
402.0
400.0
398.0
397.0
395.0
393.0
391.0
389.0
388.0
386.0
385.0
383.0
379.0
377.0
376.0
373.0
370.0
367.0
365.0
363.0
363.0
367.0
377.0
395.0
417.0
441.0
465.0
489.0
512.0
530.0
545.0
556.0
564.0
570.0
573.0
573.0
572.0
571.0
568.0
565.0
561.0
557.0
554.0
553.0
551.0
549.0
548.0
547.0
546.0
543.0
541.0
536.0
531.0
524.0
520.0
517.0
516.0
515.0
515.0
516.0
517.0
518.0
519.0
521.0
521.0
521.0
520.0
517.0
516.0
513.0
511.0
508.0
504.0
500.0
495.0
490.0
485.0
480.0
476.0
473.0
470.0
466.0
462.0
458.0
455.0
451.0
448.0
446.0
443.0
440.0
438.0
436.0
435.0
433.0
431.0
429.0
426.0
424.0
423.0
422.0
420.0
418.0
417.0
415.0
414.0
412.0
411.0
409.0
406.0
403.0
400.0
398.0
396.0
394.0
392.0
389.0
387.0
386.0
384.0
383.0
381.0
377.0
376.0
373.0
371.0
368.0
367.0
365.0
363.0
361.0
359.0
357.0
354.0
355.0
361.0
375.0
394.0
419.0
444.0
469.0
492.0
512.0
528.0
544.0
555.0
562.0
567.0
570.0
570.0
570.0
567.0
564.0
560.0
556.0
554.0
551.0
548.0
546.0
545.0
544.0
542.0
540.0
538.0
533.0
529.0
522.0
518.0
514.0
512.0
510.0
512.0
512.0
513.0
514.0
516.0
517.0
518.0
519.0
518.0
517.0
516.0
513.0
511.0
508.0
505.0
501.0
497.0
492.0
489.0
485.0
480.0
475.0
470.0
466.0
463.0
459.0
456.0
452.0
449.0
447.0
445.0
442.0
441.0
438.0
436.0
435.0
433.0
432.0
431.0
429.0
428.0
424.0
423.0
421.0
419.0
417.0
415.0
414.0
413.0
412.0
410.0
408.0
406.0
403.0
401.0
399.0
398.0
396.0
394.0
392.0
390.0
390.0
389.0
386.0
384.0
381.0
378.0
376.0
373.0
370.0
367.0
364.0
361.0
361.0
364.0
372.0
387.0
408.0
432.0
456.0
480.0
500.0
517.0
529.0
540.0
548.0
552.0
556.0
558.0
556.0
553.0
550.0
546.0
541.0
537.0
530.0
526.0
521.0
518.0
513.0
510.0
504.0
499.0
493.0
489.0
483.0
480.0
477.0
477.0
478.0
480.0
482.0
485.0
486.0
488.0
491.0
493.0
494.0
493.0
491.0
490.0
487.0
486.0
482.0
477.0
473.0
468.0
462.0
459.0
454.0
449.0
445.0
441.0
437.0
433.0
430.0
428.0
424.0
422.0
419.0
415.0
413.0
411.0
409.0
407.0
405.0
402.0
401.0
399.0
397.0
396.0
397.0
396.0
395.0
392.0
390.0
388.0
386.0
385.0
384.0
382.0
380.0
378.0
375.0
374.0
373.0
372.0
370.0
368.0
365.0
362.0
361.0
359.0
356.0
353.0
352.0
350.0
347.0
344.0
342.0
340.0
341.0
349.0
364.0
388.0
416.0
445.0
472.0
495.0
515.0
530.0
543.0
553.0
560.0
566.0
569.0
570.0
568.0
566.0
563.0
560.0
557.0
553.0
549.0
545.0
542.0
540.0
538.0
537.0
534.0
531.0
526.0
522.0
517.0
513.0
508.0
506.0
505.0
504.0
503.0
505.0
505.0
507.0
507.0
509.0
510.0
510.0
509.0
510.0
507.0
504.0
502.0
498.0
493.0
489.0
484.0
480.0
475.0
470.0
465.0
461.0
455.0
452.0
448.0
445.0
440.0
437.0
433.0
431.0
429.0
426.0
422.0
419.0
417.0
415.0
412.0
411.0
410.0
409.0
407.0
406.0
404.0
402.0
400.0
398.0
395.0
393.0
391.0
389.0
387.0
385.0
383.0
383.0
382.0
380.0
378.0
375.0
373.0
371.0
368.0
366.0
362.0
360.0
357.0
355.0
351.0
348.0
346.0
344.0
343.0
349.0
363.0
385.0
412.0
440.0
467.0
492.0
512.0
528.0
541.0
551.0
559.0
564.0
567.0
569.0
567.0
566.0
563.0
559.0
553.0
549.0
543.0
541.0
537.0
534.0
532.0
529.0
526.0
523.0
518.0
514.0
508.0
503.0
498.0
495.0
493.0
493.0
494.0
495.0
497.0
499.0
500.0
502.0
503.0
503.0
503.0
502.0
499.0
498.0
495.0
493.0
489.0
484.0
479.0
475.0
470.0
466.0
460.0
455.0
451.0
446.0
441.0
438.0
433.0
430.0
426.0
422.0
419.0
417.0
415.0
414.0
412.0
409.0
407.0
405.0
403.0
402.0
400.0
399.0
398.0
397.0
395.0
393.0
391.0
389.0
386.0
385.0
382.0
381.0
378.0
377.0
375.0
374.0
371.0
369.0
367.0
364.0
361.0
359.0
355.0
351.0
347.0
344.0
342.0
338.0
336.0
339.0
351.0
371.0
397.0
427.0
456.0
483.0
504.0
522.0
535.0
545.0
553.0
557.0
559.0
559.0
557.0
555.0
550.0
546.0
540.0
535.0
530.0
525.0
519.0
513.0
508.0
504.0
499.0
495.0
490.0
484.0
479.0
477.0
475.0
473.0
474.0
476.0
479.0
482.0
485.0
490.0
493.0
497.0
499.0
500.0
500.0
498.0
497.0
493.0
489.0
485.0
481.0
476.0
471.0
467.0
461.0
457.0
451.0
447.0
442.0
438.0
434.0
429.0
425.0
424.0
422.0
419.0
415.0
412.0
411.0
410.0
408.0
406.0
404.0
403.0
402.0
402.0
401.0
400.0
399.0
397.0
396.0
394.0
392.0
392.0
390.0
387.0
384.0
382.0
379.0
375.0
372.0
371.0
371.0
375.0
387.0
406.0
430.0
457.0
481.0
504.0
522.0
537.0
549.0
558.0
565.0
569.0
571.0
571.0
570.0
568.0
563.0
559.0
552.0
546.0
540.0
536.0
532.0
528.0
523.0
518.0
512.0
505.0
498.0
492.0
487.0
484.0
483.0
483.0
485.0
487.0
490.0
494.0
498.0
501.0
503.0
506.0
506.0
505.0
504.0
503.0
501.0
498.0
493.0
489.0
484.0
478.0
473.0
467.0
462.0
458.0
453.0
448.0
444.0
440.0
437.0
433.0
429.0
426.0
424.0
421.0
418.0
415.0
413.0
412.0
411.0
410.0
409.0
407.0
405.0
404.0
403.0
402.0
400.0
399.0
398.0
397.0
395.0
394.0
393.0
392.0
392.0
393.0
400.0
416.0
441.0
470.0
499.0
525.0
548.0
569.0
587.0
602.0
614.0
624.0
631.0
636.0
638.0
639.0
638.0
637.0
635.0
635.0
634.0
632.0
630.0
629.0
628.0
627.0
626.0
624.0
620.0
618.0
614.0
608.0
604.0
601.0
597.0
594.0
592.0
591.0
590.0
589.0
587.0
587.0
586.0
584.0
584.0
584.0
583.0
580.0
577.0
572.0
566.0
562.0
556.0
551.0
546.0
542.0
537.0
531.0
526.0
520.0
516.0
511.0
506.0
502.0
496.0
492.0
489.0
485.0
482.0
480.0
477.0
474.0
472.0
470.0
470.0
470.0
468.0
468.0
466.0
465.0
464.0
462.0
459.0
455.0
450.0
447.0
443.0
439.0
435.0
435.0
437.0
446.0
462.0
483.0
503.0
521.0
538.0
554.0
566.0
578.0
585.0
590.0
594.0
595.0
595.0
593.0
590.0
586.0
583.0
579.0
576.0
573.0
568.0
566.0
564.0
561.0
559.0
558.0
554.0
549.0
544.0
539.0
534.0
530.0
525.0
523.0
520.0
518.0
518.0
519.0
520.0
520.0
520.0
521.0
519.0
518.0
516.0
514.0
511.0
506.0
503.0
498.0
493.0
488.0
484.0
480.0
475.0
469.0
464.0
459.0
455.0
449.0
445.0
441.0
438.0
433.0
430.0
428.0
425.0
422.0
420.0
419.0
417.0
415.0
414.0
413.0
410.0
408.0
407.0
404.0
401.0
400.0
397.0
395.0
393.0
391.0
389.0
387.0
384.0
380.0
377.0
376.0
377.0
386.0
400.0
422.0
446.0
470.0
490.0
509.0
526.0
539.0
549.0
558.0
564.0
568.0
568.0
568.0
565.0
562.0
559.0
556.0
552.0
548.0
544.0
542.0
539.0
537.0
534.0
530.0
524.0
518.0
513.0
508.0
503.0
499.0
497.0
496.0
496.0
497.0
498.0
500.0
501.0
501.0
502.0
503.0
504.0
502.0
501.0
499.0
496.0
492.0
489.0
485.0
480.0
475.0
470.0
465.0
462.0
455.0
451.0
447.0
442.0
438.0
434.0
431.0
427.0
423.0
420.0
417.0
415.0
411.0
409.0
407.0
407.0
405.0
404.0
402.0
401.0
400.0
398.0
397.0
395.0
393.0
390.0
388.0
388.0
386.0
385.0
385.0
382.0
380.0
377.0
375.0
372.0
369.0
365.0
362.0
358.0
356.0
356.0
358.0
367.0
384.0
409.0
437.0
464.0
486.0
505.0
521.0
534.0
544.0
552.0
556.0
558.0
557.0
556.0
553.0
549.0
544.0
540.0
536.0
532.0
529.0
526.0
522.0
519.0
516.0
512.0
507.0
503.0
498.0
494.0
491.0
489.0
488.0
489.0
491.0
492.0
494.0
496.0
498.0
501.0
501.0
502.0
501.0
500.0
498.0
495.0
493.0
488.0
485.0
481.0
476.0
472.0
467.0
464.0
459.0
455.0
450.0
447.0
444.0
440.0
436.0
432.0
429.0
427.0
422.0
420.0
418.0
417.0
415.0
413.0
412.0
410.0
408.0
406.0
405.0
404.0
403.0
401.0
398.0
396.0
394.0
392.0
390.0
388.0
384.0
380.0
377.0
375.0
372.0
371.0
372.0
378.0
391.0
411.0
433.0
454.0
473.0
490.0
504.0
515.0
524.0
530.0
535.0
537.0
538.0
536.0
533.0
530.0
524.0
520.0
515.0
509.0
504.0
500.0
495.0
491.0
485.0
480.0
474.0
467.0
462.0
458.0
456.0
455.0
455.0
455.0
457.0
461.0
465.0
467.0
470.0
470.0
469.0
469.0
469.0
467.0
465.0
464.0
461.0
457.0
453.0
448.0
444.0
439.0
434.0
429.0
424.0
419.0
415.0
411.0
406.0
402.0
399.0
395.0
392.0
389.0
387.0
385.0
383.0
380.0
377.0
376.0
374.0
373.0
372.0
370.0
369.0
367.0
365.0
364.0
364.0
363.0
362.0
360.0
359.0
357.0
354.0
350.0
349.0
347.0
344.0
341.0
339.0
337.0
337.0
342.0
354.0
375.0
400.0
426.0
447.0
466.0
484.0
498.0
510.0
521.0
529.0
534.0
536.0
536.0
535.0
533.0
531.0
528.0
523.0
519.0
516.0
512.0
509.0
507.0
507.0
506.0
504.0
501.0
498.0
493.0
488.0
483.0
480.0
477.0
475.0
474.0
473.0
474.0
475.0
476.0
478.0
478.0
478.0
477.0
477.0
476.0
475.0
472.0
468.0
465.0
462.0
458.0
454.0
449.0
445.0
440.0
436.0
432.0
428.0
424.0
420.0
416.0
412.0
408.0
406.0
403.0
400.0
396.0
394.0
392.0
389.0
387.0
386.0
384.0
383.0
381.0
379.0
377.0
375.0
373.0
373.0
373.0
372.0
371.0
368.0
366.0
365.0
363.0
362.0
359.0
356.0
352.0
350.0
347.0
346.0
345.0
346.0
353.0
368.0
389.0
414.0
435.0
456.0
474.0
492.0
504.0
516.0
523.0
529.0
532.0
533.0
531.0
530.0
527.0
524.0
521.0
518.0
515.0
512.0
509.0
507.0
504.0
503.0
501.0
499.0
496.0
491.0
487.0
483.0
480.0
477.0
475.0
474.0
472.0
473.0
472.0
475.0
477.0
478.0
479.0
479.0
479.0
479.0
478.0
476.0
473.0
469.0
465.0
462.0
457.0
454.0
450.0
446.0
442.0
437.0
433.0
429.0
425.0
421.0
416.0
413.0
409.0
406.0
403.0
400.0
399.0
397.0
395.0
393.0
391.0
390.0
388.0
387.0
386.0
383.0
381.0
380.0
379.0
377.0
376.0
375.0
373.0
371.0
369.0
367.0
365.0
362.0
357.0
354.0
351.0
347.0
345.0
343.0
343.0
347.0
358.0
379.0
402.0
428.0
449.0
468.0
482.0
494.0
503.0
512.0
517.0
521.0
523.0
524.0
522.0
520.0
515.0
511.0
506.0
501.0
496.0
493.0
488.0
485.0
481.0
479.0
474.0
470.0
465.0
461.0
457.0
454.0
452.0
452.0
452.0
452.0
454.0
458.0
460.0
464.0
466.0
467.0
467.0
467.0
466.0
465.0
463.0
459.0
455.0
451.0
447.0
444.0
440.0
436.0
431.0
427.0
422.0
418.0
414.0
410.0
406.0
403.0
399.0
396.0
392.0
390.0
387.0
386.0
384.0
382.0
380.0
379.0
377.0
377.0
375.0
373.0
372.0
370.0
367.0
366.0
364.0
363.0
359.0
357.0
354.0
353.0
351.0
351.0
354.0
367.0
384.0
407.0
429.0
448.0
464.0
478.0
489.0
498.0
504.0
508.0
510.0
510.0
507.0
505.0
501.0
497.0
493.0
488.0
482.0
477.0
472.0
468.0
462.0
458.0
453.0
447.0
442.0
436.0
431.0
428.0
427.0
426.0
427.0
429.0
431.0
434.0
437.0
441.0
444.0
446.0
446.0
446.0
444.0
444.0
442.0
440.0
436.0
433.0
430.0
426.0
421.0
418.0
413.0
407.0
402.0
398.0
392.0
388.0
384.0
381.0
377.0
373.0
370.0
368.0
365.0
362.0
359.0
356.0
354.0
353.0
351.0
350.0
350.0
349.0
347.0
346.0
345.0
343.0
342.0
341.0
339.0
339.0
336.0
334.0
332.0
329.0
326.0
324.0
324.0
330.0
346.0
370.0
398.0
423.0
444.0
463.0
478.0
493.0
504.0
511.0
516.0
518.0
518.0
518.0
516.0
513.0
509.0
505.0
501.0
496.0
492.0
490.0
487.0
484.0
482.0
481.0
478.0
475.0
471.0
467.0
461.0
458.0
455.0
451.0
450.0
451.0
451.0
453.0
455.0
457.0
458.0
460.0
459.0
459.0
459.0
458.0
456.0
454.0
451.0
449.0
445.0
442.0
439.0
434.0
429.0
424.0
419.0
415.0
411.0
407.0
404.0
400.0
396.0
392.0
388.0
385.0
383.0
378.0
377.0
376.0
374.0
372.0
370.0
369.0
367.0
364.0
362.0
361.0
358.0
358.0
358.0
358.0
357.0
355.0
353.0
351.0
348.0
346.0
343.0
340.0
336.0
334.0
332.0
335.0
342.0
358.0
380.0
407.0
432.0
453.0
472.0
489.0
502.0
511.0
518.0
524.0
526.0
528.0
527.0
526.0
523.0
520.0
515.0
512.0
506.0
502.0
499.0
495.0
493.0
491.0
488.0
485.0
482.0
479.0
474.0
470.0
466.0
462.0
460.0
461.0
460.0
459.0
460.0
463.0
466.0
467.0
467.0
469.0
468.0
468.0
468.0
466.0
464.0
461.0
456.0
453.0
450.0
447.0
443.0
439.0
433.0
428.0
424.0
421.0
415.0
411.0
406.0
404.0
400.0
397.0
394.0
391.0
388.0
385.0
382.0
380.0
378.0
376.0
372.0
372.0
371.0
369.0
367.0
366.0
365.0
363.0
361.0
360.0
358.0
356.0
354.0
352.0
351.0
350.0
347.0
345.0
341.0
338.0
336.0
339.0
348.0
365.0
390.0
418.0
441.0
463.0
481.0
498.0
509.0
518.0
525.0
528.0
530.0
530.0
527.0
524.0
519.0
515.0
510.0
506.0
501.0
497.0
493.0
489.0
486.0
482.0
478.0
474.0
469.0
463.0
458.0
453.0
451.0
449.0
449.0
451.0
454.0
457.0
459.0
463.0
466.0
468.0
469.0
470.0
470.0
467.0
466.0
464.0
461.0
459.0
455.0
453.0
448.0
443.0
439.0
435.0
430.0
425.0
420.0
417.0
413.0
408.0
403.0
401.0
397.0
395.0
391.0
389.0
387.0
385.0
383.0
383.0
381.0
380.0
378.0
377.0
375.0
374.0
371.0
369.0
366.0
365.0
362.0
361.0
360.0
359.0
361.0
371.0
387.0
411.0
435.0
456.0
474.0
490.0
504.0
516.0
524.0
528.0
531.0
531.0
529.0
527.0
523.0
520.0
514.0
507.0
500.0
495.0
490.0
484.0
479.0
475.0
468.0
463.0
456.0
449.0
443.0
439.0
436.0
436.0
438.0
439.0
442.0
445.0
449.0
454.0
457.0
461.0
462.0
462.0
462.0
461.0
460.0
458.0
455.0
450.0
446.0
442.0
437.0
433.0
428.0
424.0
419.0
414.0
410.0
405.0
399.0
396.0
391.0
388.0
384.0
381.0
378.0
375.0
373.0
371.0
368.0
364.0
363.0
361.0
359.0
359.0
358.0
357.0
356.0
355.0
353.0
352.0
350.0
348.0
345.0
342.0
340.0
340.0
344.0
357.0
379.0
408.0
436.0
463.0
486.0
505.0
520.0
532.0
541.0
548.0
552.0
554.0
553.0
552.0
549.0
546.0
542.0
538.0
532.0
528.0
523.0
519.0
515.0
512.0
509.0
506.0
502.0
499.0
494.0
490.0
484.0
481.0
478.0
477.0
477.0
477.0
477.0
479.0
480.0
483.0
485.0
487.0
488.0
489.0
487.0
486.0
484.0
481.0
477.0
472.0
466.0
463.0
458.0
453.0
448.0
444.0
439.0
435.0
431.0
427.0
422.0
417.0
413.0
409.0
405.0
401.0
399.0
396.0
394.0
391.0
389.0
388.0
386.0
383.0
382.0
380.0
379.0
378.0
377.0
374.0
373.0
371.0
369.0
367.0
365.0
362.0
359.0
356.0
354.0
355.0
360.0
375.0
398.0
427.0
456.0
481.0
503.0
521.0
536.0
546.0
554.0
560.0
563.0
564.0
563.0
562.0
559.0
554.0
550.0
545.0
540.0
537.0
533.0
529.0
525.0
522.0
520.0
516.0
512.0
507.0
501.0
496.0
492.0
489.0
486.0
486.0
486.0
486.0
487.0
488.0
490.0
493.0
494.0
495.0
494.0
494.0
493.0
491.0
488.0
486.0
482.0
478.0
473.0
468.0
464.0
459.0
454.0
449.0
445.0
440.0
435.0
430.0
426.0
421.0
417.0
414.0
410.0
407.0
405.0
402.0
400.0
397.0
394.0
392.0
391.0
389.0
387.0
385.0
384.0
382.0
381.0
379.0
377.0
375.0
373.0
371.0
368.0
366.0
363.0
360.0
357.0
355.0
352.0
352.0
357.0
370.0
392.0
421.0
448.0
472.0
492.0
511.0
526.0
536.0
545.0
551.0
553.0
554.0
553.0
549.0
546.0
541.0
535.0
530.0
523.0
517.0
513.0
508.0
503.0
499.0
494.0
489.0
483.0
477.0
471.0
467.0
464.0
462.0
463.0
464.0
467.0
471.0
475.0
478.0
481.0
484.0
486.0
487.0
487.0
484.0
482.0
478.0
475.0
471.0
468.0
463.0
458.0
453.0
447.0
443.0
439.0
433.0
429.0
423.0
419.0
414.0
410.0
406.0
401.0
398.0
394.0
392.0
390.0
388.0
386.0
384.0
382.0
381.0
379.0
378.0
376.0
375.0
373.0
370.0
368.0
366.0
362.0
360.0
357.0
355.0
355.0
359.0
369.0
388.0
413.0
441.0
465.0
485.0
502.0
517.0
528.0
538.0
544.0
548.0
548.0
548.0
545.0
541.0
537.0
531.0
524.0
519.0
512.0
505.0
499.0
494.0
488.0
483.0
477.0
472.0
465.0
458.0
453.0
449.0
449.0
450.0
452.0
456.0
459.0
462.0
466.0
469.0
472.0
474.0
475.0
474.0
472.0
470.0
468.0
464.0
460.0
456.0
451.0
446.0
443.0
436.0
432.0
428.0
423.0
418.0
414.0
410.0
406.0
401.0
396.0
393.0
389.0
387.0
384.0
381.0
379.0
377.0
375.0
371.0
365.0
358.0
351.0
344.0
338.0
335.0
337.0
343.0
353.0
363.0
374.0
383.0
389.0
396.0
404.0
417.0
434.0
459.0
485.0
511.0
533.0
555.0
574.0
588.0
601.0
609.0
613.0
616.0
616.0
616.0
614.0
613.0
611.0
607.0
606.0
603.0
601.0
598.0
594.0
590.0
586.0
582.0
577.0
571.0
565.0
560.0
555.0
553.0
551.0
549.0
549.0
550.0
552.0
553.0
552.0
553.0
551.0
549.0
547.0
544.0
539.0
534.0
530.0
524.0
519.0
513.0
506.0
499.0
491.0
483.0
475.0
468.0
460.0
453.0
448.0
443.0
439.0
431.0
425.0
420.0
415.0
411.0
407.0
403.0
398.0
394.0
391.0
388.0
386.0
382.0
380.0
377.0
375.0
373.0
371.0
368.0
365.0
362.0
358.0
355.0
352.0
350.0
348.0
351.0
364.0
385.0
415.0
446.0
473.0
495.0
514.0
530.0
543.0
553.0
560.0
564.0
565.0
564.0
562.0
560.0
556.0
552.0
547.0
543.0
538.0
535.0
530.0
527.0
524.0
521.0
515.0
512.0
507.0
501.0
496.0
491.0
487.0
483.0
480.0
480.0
479.0
479.0
479.0
480.0
483.0
483.0
485.0
485.0
485.0
485.0
483.0
481.0
478.0
475.0
471.0
469.0
465.0
461.0
458.0
454.0
449.0
446.0
441.0
436.0
431.0
426.0
421.0
418.0
413.0
409.0
404.0
400.0
397.0
393.0
390.0
387.0
384.0
381.0
377.0
375.0
372.0
370.0
366.0
363.0
362.0
360.0
358.0
355.0
353.0
351.0
349.0
346.0
343.0
340.0
338.0
336.0
334.0
331.0
327.0
324.0
321.0
320.0
326.0
341.0
366.0
398.0
431.0
460.0
484.0
504.0
521.0
535.0
544.0
551.0
556.0
557.0
558.0
556.0
553.0
549.0
544.0
540.0
534.0
530.0
525.0
521.0
518.0
517.0
515.0
511.0
508.0
504.0
498.0
493.0
489.0
485.0
481.0
479.0
477.0
476.0
478.0
480.0
482.0
484.0
485.0
486.0
487.0
487.0
486.0
483.0
480.0
477.0
475.0
470.0
465.0
461.0
456.0
451.0
447.0
442.0
436.0
431.0
427.0
422.0
419.0
415.0
410.0
408.0
405.0
402.0
400.0
398.0
395.0
393.0
390.0
390.0
389.0
387.0
386.0
385.0
382.0
381.0
379.0
378.0
376.0
375.0
373.0
371.0
369.0
368.0
367.0
365.0
363.0
361.0
358.0
356.0
353.0
351.0
349.0
347.0
344.0
341.0
338.0
335.0
332.0
329.0
327.0
329.0
339.0
360.0
389.0
422.0
455.0
482.0
504.0
522.0
537.0
549.0
557.0
562.0
563.0
563.0
559.0
556.0
551.0
546.0
541.0
536.0
530.0
524.0
520.0
516.0
512.0
507.0
503.0
498.0
492.0
487.0
481.0
477.0
473.0
471.0
470.0
471.0
471.0
473.0
475.0
478.0
481.0
481.0
482.0
483.0
482.0
481.0
479.0
476.0
472.0
467.0
462.0
457.0
452.0
447.0
443.0
437.0
433.0
427.0
422.0
417.0
412.0
407.0
403.0
399.0
395.0
392.0
389.0
387.0
384.0
380.0
377.0
375.0
372.0
370.0
368.0
366.0
364.0
362.0
360.0
359.0
356.0
354.0
351.0
350.0
347.0
346.0
344.0
343.0
341.0
340.0
337.0
334.0
331.0
328.0
324.0
321.0
316.0
314.0
314.0
321.0
335.0
358.0
387.0
417.0
442.0
461.0
476.0
489.0
498.0
503.0
507.0
509.0
508.0
507.0
504.0
499.0
494.0
489.0
481.0
476.0
469.0
464.0
459.0
454.0
449.0
444.0
438.0
432.0
425.0
419.0
416.0
413.0
411.0
411.0
412.0
414.0
417.0
420.0
423.0
426.0
428.0
429.0
430.0
430.0
427.0
425.0
422.0
420.0
418.0
414.0
409.0
403.0
398.0
393.0
387.0
382.0
376.0
371.0
366.0
363.0
358.0
354.0
350.0
346.0
341.0
336.0
334.0
331.0
328.0
326.0
323.0
322.0
320.0
318.0
317.0
317.0
314.0
314.0
312.0
312.0
310.0
309.0
306.0
306.0
305.0
304.0
303.0
301.0
299.0
298.0
296.0
295.0
294.0
291.0
289.0
288.0
285.0
281.0
278.0
277.0
275.0
282.0
297.0
326.0
358.0
390.0
416.0
437.0
454.0
468.0
478.0
485.0
489.0
490.0
489.0
488.0
485.0
481.0
477.0
471.0
465.0
459.0
454.0
450.0
446.0
442.0
438.0
434.0
429.0
425.0
420.0
415.0
413.0
410.0
409.0
409.0
410.0
412.0
415.0
417.0
420.0
421.0
424.0
426.0
427.0
427.0
427.0
426.0
424.0
421.0
419.0
416.0
411.0
407.0
402.0
398.0
393.0
390.0
385.0
383.0
379.0
375.0
371.0
367.0
363.0
360.0
355.0
353.0
350.0
348.0
347.0
345.0
343.0
341.0
340.0
338.0
336.0
334.0
333.0
333.0
332.0
331.0
331.0
329.0
328.0
327.0
325.0
324.0
322.0
320.0
317.0
314.0
313.0
310.0
309.0
309.0
311.0
321.0
339.0
367.0
395.0
420.0
440.0
456.0
470.0
481.0
489.0
495.0
497.0
497.0
495.0
494.0
490.0
485.0
481.0
476.0
471.0
467.0
463.0
459.0
455.0
451.0
448.0
445.0
440.0
436.0
429.0
425.0
422.0
420.0
418.0
419.0
420.0
422.0
424.0
427.0
428.0
431.0
432.0
433.0
435.0
435.0
435.0
433.0
431.0
428.0
425.0
422.0
418.0
414.0
409.0
405.0
400.0
397.0
393.0
390.0
385.0
382.0
377.0
375.0
371.0
368.0
365.0
363.0
359.0
357.0
355.0
355.0
353.0
351.0
350.0
350.0
349.0
347.0
346.0
344.0
343.0
342.0
341.0
338.0
338.0
337.0
334.0
334.0
333.0
332.0
330.0
330.0
329.0
328.0
325.0
324.0
321.0
317.0
315.0
315.0
314.0
321.0
337.0
362.0
392.0
421.0
445.0
465.0
481.0
494.0
504.0
511.0
515.0
519.0
518.0
517.0
514.0
511.0
506.0
503.0
499.0
494.0
490.0
487.0
484.0
481.0
478.0
478.0
475.0
473.0
470.0
467.0
462.0
458.0
456.0
454.0
453.0
453.0
453.0
454.0
456.0
460.0
461.0
464.0
464.0
465.0
464.0
463.0
463.0
460.0
458.0
456.0
452.0
448.0
445.0
441.0
437.0
434.0
430.0
426.0
422.0
419.0
415.0
413.0
410.0
406.0
402.0
400.0
398.0
396.0
393.0
391.0
389.0
387.0
385.0
385.0
383.0
382.0
381.0
380.0
378.0
376.0
374.0
374.0
372.0
371.0
369.0
368.0
366.0
364.0
362.0
361.0
359.0
357.0
356.0
355.0
354.0
353.0
350.0
349.0
347.0
344.0
341.0
339.0
338.0
338.0
344.0
360.0
383.0
412.0
439.0
463.0
480.0
497.0
509.0
520.0
525.0
529.0
531.0
531.0
531.0
529.0
524.0
521.0
517.0
514.0
509.0
505.0
502.0
498.0
495.0
494.0
492.0
489.0
486.0
481.0
478.0
474.0
471.0
468.0
467.0
466.0
466.0
467.0
469.0
472.0
475.0
477.0
477.0
478.0
478.0
478.0
477.0
475.0
472.0
470.0
467.0
464.0
460.0
457.0
453.0
449.0
445.0
441.0
437.0
433.0
430.0
427.0
425.0
422.0
420.0
418.0
415.0
413.0
411.0
407.0
406.0
404.0
402.0
402.0
401.0
400.0
399.0
397.0
396.0
393.0
391.0
390.0
388.0
385.0
384.0
383.0
382.0
380.0
378.0
375.0
375.0
373.0
371.0
369.0
368.0
366.0
365.0
362.0
361.0
359.0
356.0
354.0
351.0
347.0
344.0
341.0
340.0
342.0
352.0
371.0
398.0
426.0
448.0
469.0
484.0
496.0
506.0
514.0
518.0
520.0
520.0
519.0
517.0
512.0
506.0
501.0
495.0
489.0
484.0
478.0
475.0
471.0
467.0
463.0
459.0
454.0
449.0
446.0
441.0
439.0
437.0
437.0
439.0
442.0
445.0
449.0
452.0
456.0
459.0
461.0
461.0
462.0
462.0
461.0
457.0
455.0
452.0
449.0
446.0
443.0
439.0
434.0
430.0
425.0
421.0
418.0
415.0
410.0
407.0
403.0
401.0
397.0
393.0
391.0
388.0
386.0
384.0
383.0
382.0
381.0
380.0
377.0
375.0
374.0
373.0
373.0
370.0
369.0
368.0
367.0
365.0
364.0
362.0
361.0
359.0
358.0
356.0
355.0
353.0
350.0
349.0
349.0
347.0
345.0
342.0
338.0
336.0
333.0
332.0
333.0
339.0
355.0
380.0
409.0
436.0
459.0
477.0
491.0
504.0
515.0
521.0
526.0
528.0
527.0
526.0
523.0
519.0
514.0
508.0
503.0
500.0
495.0
492.0
489.0
488.0
487.0
485.0
482.0
478.0
474.0
470.0
466.0
463.0
459.0
458.0
459.0
460.0
462.0
465.0
466.0
469.0
472.0
473.0
474.0
474.0
474.0
474.0
473.0
471.0
468.0
465.0
462.0
459.0
456.0
451.0
448.0
443.0
440.0
436.0
432.0
429.0
426.0
422.0
420.0
417.0
413.0
410.0
408.0
405.0
402.0
400.0
399.0
397.0
395.0
393.0
392.0
389.0
388.0
387.0
385.0
383.0
382.0
381.0
380.0
379.0
377.0
376.0
375.0
374.0
371.0
369.0
366.0
365.0
363.0
362.0
360.0
358.0
356.0
354.0
352.0
350.0
348.0
345.0
343.0
344.0
349.0
366.0
392.0
421.0
448.0
470.0
490.0
505.0
518.0
527.0
534.0
538.0
541.0
541.0
542.0
540.0
536.0
532.0
529.0
525.0
521.0
517.0
513.0
510.0
506.0
504.0
503.0
501.0
499.0
495.0
492.0
487.0
483.0
480.0
478.0
478.0
478.0
481.0
483.0
486.0
487.0
489.0
491.0
493.0
493.0
493.0
492.0
490.0
487.0
485.0
483.0
480.0
477.0
473.0
469.0
465.0
461.0
457.0
453.0
448.0
445.0
441.0
438.0
435.0
432.0
429.0
427.0
424.0
420.0
418.0
416.0
413.0
411.0
410.0
409.0
407.0
406.0
404.0
404.0
402.0
401.0
398.0
396.0
394.0
392.0
391.0
390.0
388.0
387.0
385.0
383.0
381.0
379.0
377.0
376.0
373.0
371.0
370.0
368.0
367.0
365.0
362.0
359.0
356.0
354.0
352.0
351.0
353.0
361.0
381.0
408.0
438.0
466.0
487.0
505.0
521.0
532.0
542.0
548.0
551.0
553.0
554.0
551.0
549.0
545.0
541.0
537.0
533.0
528.0
524.0
521.0
517.0
514.0
512.0
510.0
506.0
501.0
498.0
494.0
491.0
489.0
488.0
488.0
489.0
491.0
492.0
495.0
498.0
501.0
504.0
507.0
507.0
507.0
506.0
504.0
502.0
500.0
497.0
493.0
488.0
485.0
481.0
478.0
474.0
470.0
466.0
462.0
457.0
454.0
450.0
447.0
445.0
444.0
442.0
440.0
438.0
437.0
435.0
434.0
432.0
429.0
428.0
427.0
425.0
424.0
422.0
421.0
419.0
418.0
417.0
415.0
414.0
412.0
409.0
408.0
406.0
404.0
402.0
401.0
399.0
397.0
394.0
391.0
388.0
385.0
383.0
385.0
391.0
404.0
424.0
448.0
472.0
493.0
509.0
523.0
534.0
544.0
551.0
555.0
557.0
556.0
552.0
550.0
547.0
541.0
538.0
534.0
530.0
524.0
519.0
517.0
512.0
507.0
502.0
495.0
490.0
485.0
482.0
479.0
479.0
478.0
479.0
482.0
484.0
488.0
489.0
494.0
497.0
497.0
499.0
499.0
499.0
496.0
495.0
494.0
490.0
487.0
482.0
477.0
473.0
469.0
465.0
461.0
456.0
452.0
449.0
446.0
442.0
437.0
434.0
431.0
429.0
426.0
422.0
420.0
418.0
416.0
414.0
413.0
413.0
411.0
409.0
407.0
407.0
405.0
404.0
401.0
400.0
397.0
395.0
394.0
392.0
390.0
389.0
388.0
387.0
386.0
386.0
383.0
380.0
376.0
373.0
370.0
366.0
364.0
361.0
361.0
365.0
377.0
399.0
426.0
455.0
479.0
499.0
518.0
534.0
547.0
557.0
564.0
569.0
570.0
572.0
571.0
570.0
565.0
562.0
559.0
555.0
552.0
549.0
546.0
545.0
543.0
541.0
537.0
535.0
531.0
526.0
521.0
517.0
514.0
512.0
511.0
510.0
511.0
512.0
514.0
515.0
515.0
515.0
517.0
518.0
517.0
516.0
515.0
513.0
510.0
508.0
503.0
500.0
495.0
492.0
487.0
482.0
478.0
474.0
470.0
467.0
463.0
459.0
455.0
453.0
449.0
446.0
443.0
440.0
437.0
434.0
432.0
430.0
429.0
427.0
426.0
423.0
422.0
420.0
418.0
417.0
414.0
412.0
410.0
408.0
406.0
404.0
402.0
401.0
399.0
396.0
394.0
393.0
391.0
387.0
384.0
381.0
379.0
376.0
374.0
372.0
372.0
378.0
393.0
416.0
442.0
466.0
488.0
506.0
523.0
538.0
550.0
559.0
565.0
568.0
570.0
570.0
569.0
565.0
562.0
558.0
555.0
551.0
548.0
546.0
544.0
541.0
538.0
536.0
533.0
530.0
525.0
520.0
515.0
512.0
509.0
507.0
506.0
505.0
506.0
507.0
509.0
509.0
512.0
513.0
513.0
514.0
512.0
511.0
508.0
505.0
502.0
499.0
496.0
490.0
486.0
482.0
477.0
473.0
469.0
464.0
459.0
454.0
451.0
448.0
445.0
442.0
439.0
436.0
434.0
432.0
430.0
428.0
425.0
422.0
420.0
417.0
417.0
416.0
415.0
412.0
410.0
408.0
407.0
405.0
402.0
400.0
399.0
396.0
395.0
393.0
392.0
391.0
389.0
388.0
384.0
381.0
378.0
374.0
371.0
367.0
363.0
362.0
364.0
370.0
385.0
408.0
434.0
458.0
479.0
497.0
513.0
525.0
538.0
545.0
551.0
554.0
555.0
554.0
553.0
550.0
545.0
541.0
536.0
531.0
527.0
523.0
520.0
516.0
513.0
510.0
505.0
501.0
496.0
492.0
489.0
487.0
486.0
485.0
487.0
488.0
489.0
493.0
495.0
497.0
498.0
498.0
499.0
499.0
499.0
496.0
494.0
490.0
486.0
481.0
478.0
473.0
468.0
462.0
459.0
453.0
449.0
444.0
441.0
436.0
432.0
429.0
426.0
424.0
421.0
419.0
415.0
413.0
412.0
409.0
407.0
405.0
404.0
402.0
401.0
399.0
398.0
396.0
395.0
393.0
391.0
389.0
388.0
386.0
383.0
381.0
378.0
376.0
373.0
371.0
367.0
364.0
361.0
359.0
364.0
375.0
394.0
418.0
445.0
468.0
487.0
505.0
520.0
532.0
542.0
548.0
552.0
555.0
556.0
554.0
554.0
550.0
547.0
542.0
537.0
532.0
528.0
525.0
522.0
520.0
517.0
514.0
509.0
504.0
499.0
495.0
492.0
490.0
491.0
490.0
492.0
493.0
494.0
496.0
498.0
499.0
499.0
500.0
501.0
500.0
499.0
498.0
495.0
491.0
488.0
483.0
478.0
473.0
469.0
463.0
460.0
457.0
455.0
453.0
451.0
448.0
444.0
443.0
442.0
440.0
437.0
435.0
432.0
430.0
429.0
426.0
426.0
424.0
422.0
420.0
418.0
416.0
413.0
410.0
408.0
407.0
406.0
404.0
404.0
403.0
402.0
401.0
399.0
397.0
394.0
392.0
390.0
387.0
385.0
382.0
380.0
376.0
372.0
368.0
365.0
362.0
362.0
368.0
383.0
405.0
430.0
455.0
480.0
499.0
519.0
532.0
545.0
555.0
562.0
567.0
570.0
572.0
573.0
572.0
570.0
566.0
564.0
559.0
557.0
553.0
551.0
549.0
548.0
546.0
543.0
540.0
538.0
533.0
530.0
525.0
520.0
518.0
516.0
513.0
513.0
513.0
514.0
514.0
515.0
516.0
517.0
517.0
517.0
516.0
513.0
509.0
507.0
503.0
499.0
496.0
492.0
486.0
480.0
474.0
469.0
464.0
459.0
455.0
450.0
444.0
441.0
437.0
434.0
430.0
426.0
423.0
420.0
417.0
414.0
411.0
409.0
407.0
404.0
401.0
400.0
397.0
396.0
393.0
392.0
390.0
387.0
384.0
382.0
380.0
378.0
375.0
374.0
370.0
368.0
365.0
365.0
362.0
360.0
357.0
354.0
349.0
346.0
341.0
339.0
336.0
334.0
335.0
346.0
366.0
392.0
420.0
445.0
470.0
490.0
508.0
523.0
534.0
542.0
548.0
551.0
553.0
554.0
552.0
550.0
546.0
543.0
539.0
535.0
531.0
528.0
523.0
520.0
517.0
515.0
511.0
507.0
502.0
495.0
491.0
488.0
484.0
483.0
483.0
483.0
485.0
487.0
489.0
491.0
493.0
494.0
495.0
494.0
493.0
491.0
489.0
486.0
483.0
480.0
475.0
471.0
466.0
461.0
457.0
452.0
446.0
441.0
436.0
431.0
426.0
422.0
417.0
413.0
409.0
405.0
402.0
400.0
398.0
396.0
393.0
391.0
387.0
385.0
383.0
382.0
379.0
377.0
375.0
374.0
371.0
368.0
366.0
364.0
363.0
361.0
358.0
355.0
352.0
348.0
343.0
342.0
339.0
337.0
338.0
345.0
360.0
381.0
407.0
