763.0
763.0
763.0
763.0
763.0
763.0
763.0
763.0
763.0
763.0
763.0
763.0
763.0
763.0
763.0
763.0
763.0
763.0
763.0
763.0
763.0
763.0
763.0
763.0
763.0
763.0
763.0
763.0
763.0
763.0
763.0
763.0
763.0
763.0
763.0
763.0
763.0
763.0
763.0
763.0
763.0
763.0
763.0
763.0
763.0
763.0
763.0
763.0
761.0
761.0
763.0
763.0
763.0
763.0
763.0
763.0
763.0
763.0
763.0
763.0
763.0
763.0
763.0
763.0
763.0
763.0
763.0
763.0
759.0
753.0
749.0
745.0
741.0
735.0
729.0
723.0
719.0
714.0
711.0
707.0
705.0
705.0
707.0
708.0
706.0
702.0
699.0
695.0
693.0
689.0
687.0
683.0
683.0
681.0
679.0
673.0
668.0
662.0
658.0
655.0
652.0
645.0
640.0
635.0
633.0
630.0
627.0
624.0
624.0
622.0
620.0
616.0
610.0
605.0
595.0
583.0
573.0
567.0
564.0
562.0
563.0
563.0
566.0
568.0
568.0
563.0
558.0
551.0
541.0
535.0
532.0
530.0
530.0
531.0
531.0
530.0
529.0
528.0
526.0
525.0
521.0
519.0
517.0
515.0
512.0
510.0
506.0
505.0
505.0
507.0
509.0
513.0
516.0
522.0
526.0
528.0
528.0
528.0
529.0
530.0
486.0
486.0
486.0
485.0
485.0
484.0
484.0
483.0
483.0
479.0
478.0
477.0
476.0
475.0
476.0
476.0
477.0
475.0
474.0
473.0
474.0
476.0
477.0
477.0
478.0
479.0
480.0
480.0
478.0
476.0
475.0
476.0
476.0
475.0
473.0
472.0
472.0
473.0
473.0
474.0
474.0
477.0
480.0
484.0
489.0
493.0
496.0
499.0
502.0
504.0
506.0
507.0
506.0
505.0
504.0
504.0
503.0
502.0
500.0
499.0
499.0
499.0
499.0
498.0
497.0
496.0
494.0
493.0
493.0
493.0
493.0
494.0
494.0
495.0
496.0
497.0
496.0
495.0
494.0
493.0
493.0
493.0
493.0
493.0
495.0
495.0
495.0
496.0
495.0
495.0
495.0
494.0
494.0
493.0
492.0
492.0
492.0
491.0
490.0
489.0
488.0
487.0
487.0
487.0
486.0
486.0
486.0
484.0
483.0
483.0
482.0
482.0
482.0
482.0
482.0
481.0
481.0
481.0
482.0
481.0
480.0
479.0
477.0
476.0
477.0
476.0
475.0
474.0
473.0
474.0
475.0
477.0
479.0
482.0
487.0
491.0
496.0
500.0
504.0
506.0
507.0
509.0
510.0
510.0
510.0
510.0
510.0
510.0
510.0
510.0
509.0
509.0
510.0
510.0
510.0
508.0
507.0
506.0
506.0
506.0
506.0
507.0
508.0
509.0
510.0
511.0
512.0
513.0
514.0
514.0
515.0
515.0
517.0
519.0
520.0
522.0
522.0
522.0
520.0
520.0
519.0
519.0
518.0
516.0
516.0
517.0
516.0
514.0
513.0
513.0
510.0
508.0
506.0
505.0
505.0
505.0
505.0
505.0
505.0
505.0
505.0
505.0
506.0
505.0
504.0
503.0
503.0
504.0
504.0
506.0
507.0
509.0
510.0
512.0
512.0
511.0
510.0
509.0
508.0
508.0
509.0
511.0
516.0
519.0
523.0
527.0
531.0
535.0
537.0
539.0
541.0
542.0
543.0
544.0
545.0
544.0
544.0
544.0
544.0
544.0
544.0
544.0
544.0
543.0
544.0
544.0
544.0
543.0
542.0
542.0
541.0
541.0
541.0
540.0
541.0
541.0
542.0
544.0
545.0
546.0
546.0
547.0
548.0
549.0
549.0
549.0
549.0
549.0
549.0
549.0
550.0
550.0
550.0
551.0
550.0
549.0
547.0
545.0
545.0
545.0
545.0
545.0
545.0
544.0
545.0
546.0
546.0
546.0
546.0
545.0
546.0
546.0
547.0
548.0
548.0
549.0
549.0
550.0
551.0
551.0
550.0
549.0
548.0
548.0
548.0
548.0
548.0
547.0
547.0
547.0
546.0
546.0
546.0
547.0
548.0
549.0
551.0
553.0
558.0
562.0
566.0
571.0
576.0
579.0
582.0
584.0
585.0
586.0
586.0
586.0
585.0
582.0
580.0
579.0
579.0
579.0
578.0
578.0
577.0
578.0
578.0
578.0
577.0
576.0
576.0
576.0
575.0
575.0
576.0
576.0
576.0
577.0
577.0
578.0
580.0
580.0
579.0
576.0
573.0
569.0
567.0
563.0
560.0
556.0
551.0
548.0
546.0
546.0
546.0
546.0
546.0
546.0
547.0
548.0
550.0
551.0
552.0
554.0
556.0
558.0
559.0
559.0
560.0
561.0
561.0
562.0
561.0
561.0
561.0
562.0
564.0
564.0
565.0
566.0
567.0
567.0
567.0
566.0
563.0
560.0
558.0
556.0
553.0
551.0
550.0
548.0
547.0
547.0
548.0
552.0
558.0
568.0
585.0
606.0
630.0
654.0
674.0
689.0
700.0
706.0
708.0
707.0
704.0
699.0
693.0
687.0
679.0
672.0
664.0
657.0
651.0
645.0
640.0
635.0
631.0
627.0
623.0
620.0
616.0
612.0
610.0
609.0
608.0
608.0
609.0
611.0
613.0
616.0
619.0
622.0
624.0
624.0
624.0
624.0
623.0
621.0
620.0
618.0
616.0
614.0
611.0
608.0
605.0
601.0
598.0
595.0
591.0
589.0
586.0
584.0
582.0
580.0
579.0
577.0
576.0
573.0
572.0
571.0
570.0
569.0
568.0
568.0
567.0
566.0
565.0
564.0
562.0
560.0
559.0
558.0
558.0
557.0
557.0
556.0
555.0
556.0
554.0
553.0
552.0
550.0
549.0
550.0
552.0
558.0
569.0
587.0
611.0
638.0
661.0
679.0
692.0
702.0
707.0
710.0
709.0
707.0
703.0
699.0
693.0
686.0
679.0
672.0
665.0
660.0
655.0
651.0
649.0
646.0
643.0
640.0
637.0
632.0
628.0
624.0
620.0
618.0
616.0
615.0
615.0
615.0
615.0
616.0
618.0
619.0
620.0
621.0
622.0
623.0
623.0
622.0
621.0
619.0
616.0
613.0
609.0
606.0
603.0
599.0
596.0
592.0
588.0
586.0
583.0
581.0
578.0
575.0
573.0
570.0
567.0
566.0
564.0
561.0
559.0
557.0
555.0
555.0
554.0
553.0
551.0
551.0
550.0
549.0
548.0
548.0
546.0
546.0
546.0
545.0
544.0
544.0
543.0
542.0
542.0
543.0
543.0
544.0
544.0
547.0
553.0
564.0
581.0
602.0
624.0
642.0
656.0
668.0
676.0
680.0
681.0
681.0
679.0
675.0
671.0
665.0
659.0
652.0
645.0
638.0
631.0
625.0
620.0
615.0
611.0
607.0
603.0
600.0
597.0
593.0
590.0
587.0
584.0
582.0
581.0
580.0
580.0
581.0
583.0
584.0
586.0
587.0
588.0
588.0
587.0
587.0
585.0
583.0
580.0
577.0
574.0
571.0
567.0
564.0
560.0
556.0
552.0
548.0
545.0
543.0
540.0
537.0
534.0
532.0
529.0
526.0
524.0
522.0
522.0
520.0
519.0
517.0
515.0
514.0
514.0
513.0
512.0
509.0
508.0
507.0
506.0
504.0
505.0
503.0
502.0
501.0
500.0
498.0
497.0
496.0
494.0
493.0
494.0
497.0
504.0
517.0
536.0
558.0
578.0
595.0
609.0
619.0
625.0
628.0
630.0
629.0
628.0
624.0
620.0
615.0
608.0
601.0
595.0
588.0
581.0
576.0
572.0
568.0
564.0
560.0
555.0
551.0
547.0
543.0
541.0
539.0
538.0
537.0
537.0
538.0
539.0
541.0
543.0
546.0
547.0
549.0
550.0
550.0
551.0
549.0
547.0
545.0
542.0
539.0
535.0
532.0
528.0
525.0
522.0
519.0
515.0
512.0
509.0
506.0
502.0
499.0
497.0
494.0
491.0
489.0
488.0
486.0
485.0
483.0
482.0
481.0
480.0
479.0
478.0
477.0
476.0
475.0
475.0
474.0
472.0
471.0
471.0
469.0
467.0
466.0
465.0
466.0
470.0
479.0
493.0
511.0
532.0
551.0
567.0
578.0
586.0
592.0
596.0
598.0
597.0
596.0
593.0
588.0
582.0
576.0
570.0
563.0
556.0
550.0
544.0
539.0
535.0
531.0
528.0
525.0
521.0
518.0
515.0
513.0
511.0
510.0
510.0
509.0
509.0
511.0
514.0
516.0
520.0
522.0
525.0
526.0
527.0
527.0
526.0
524.0
522.0
520.0
518.0
515.0
513.0
510.0
507.0
505.0
503.0
502.0
500.0
499.0
498.0
496.0
494.0
493.0
491.0
491.0
490.0
488.0
488.0
487.0
486.0
484.0
481.0
480.0
480.0
479.0
478.0
477.0
476.0
475.0
474.0
473.0
472.0
471.0
470.0
469.0
469.0
473.0
481.0
496.0
518.0
541.0
563.0
579.0
591.0
599.0
604.0
608.0
608.0
607.0
604.0
601.0
597.0
591.0
585.0
579.0
572.0
565.0
559.0
554.0
550.0
546.0
542.0
539.0
536.0
532.0
527.0
523.0
519.0
515.0
511.0
509.0
509.0
509.0
510.0
513.0
516.0
518.0
520.0
521.0
520.0
519.0
519.0
518.0
516.0
514.0
512.0
508.0
505.0
502.0
499.0
495.0
492.0
488.0
484.0
481.0
479.0
476.0
474.0
471.0
470.0
468.0
466.0
465.0
464.0
462.0
460.0
459.0
458.0
456.0
454.0
453.0
452.0
451.0
450.0
450.0
449.0
448.0
446.0
446.0
445.0
446.0
446.0
450.0
457.0
470.0
487.0
508.0
527.0
542.0
555.0
564.0
571.0
575.0
577.0
578.0
577.0
574.0
571.0
567.0
562.0
557.0
551.0
545.0
540.0
536.0
532.0
529.0
526.0
524.0
520.0
516.0
511.0
507.0
503.0
501.0
499.0
498.0
498.0
499.0
500.0
502.0
505.0
507.0
509.0
510.0
513.0
515.0
517.0
517.0
517.0
515.0
513.0
510.0
506.0
503.0
499.0
496.0
492.0
489.0
487.0
485.0
482.0
480.0
479.0
476.0
474.0
472.0
470.0
467.0
466.0
464.0
463.0
462.0
460.0
460.0
459.0
458.0
457.0
455.0
454.0
453.0
451.0
451.0
450.0
450.0
448.0
449.0
449.0
451.0
455.0
462.0
475.0
492.0
512.0
531.0
547.0
559.0
567.0
573.0
577.0
579.0
579.0
577.0
573.0
567.0
559.0
551.0
544.0
538.0
532.0
526.0
522.0
518.0
514.0
511.0
507.0
504.0
500.0
497.0
494.0
491.0
490.0
489.0
488.0
489.0
490.0
491.0
493.0
495.0
497.0
500.0
502.0
503.0
504.0
504.0
504.0
502.0
500.0
498.0
495.0
492.0
489.0
487.0
486.0
483.0
481.0
479.0
476.0
472.0
469.0
467.0
465.0
464.0
463.0
462.0
462.0
460.0
462.0
464.0
466.0
468.0
470.0
472.0
474.0
478.0
481.0
484.0
488.0
491.0
492.0
494.0
495.0
496.0
498.0
500.0
503.0
510.0
522.0
539.0
559.0
579.0
595.0
610.0
621.0
630.0
638.0
643.0
646.0
648.0
648.0
646.0
644.0
640.0
634.0
629.0
623.0
618.0
613.0
607.0
601.0
595.0
591.0
587.0
582.0
576.0
572.0
569.0
565.0
562.0
561.0
560.0
561.0
562.0
563.0
564.0
565.0
567.0
570.0
572.0
573.0
574.0
574.0
576.0
576.0
574.0
573.0
571.0
568.0
565.0
562.0
556.0
551.0
545.0
540.0
535.0
529.0
525.0
520.0
515.0
508.0
503.0
502.0
504.0
507.0
512.0
516.0
521.0
526.0
533.0
537.0
546.0
554.0
559.0
562.0
564.0
564.0
563.0
561.0
560.0
559.0
560.0
565.0
572.0
581.0
592.0
601.0
611.0
620.0
627.0
632.0
635.0
635.0
635.0
634.0
631.0
629.0
625.0
621.0
618.0
613.0
609.0
606.0
603.0
601.0
598.0
596.0
594.0
592.0
589.0
586.0
584.0
582.0
580.0
579.0
579.0
580.0
580.0
582.0
584.0
587.0
588.0
588.0
587.0
586.0
584.0
582.0
581.0
579.0
577.0
575.0
572.0
569.0
566.0
563.0
560.0
558.0
553.0
550.0
548.0
545.0
542.0
539.0
534.0
530.0
525.0
520.0
516.0
511.0
508.0
506.0
507.0
507.0
508.0
508.0
510.0
512.0
512.0
513.0
515.0
517.0
519.0
522.0
527.0
531.0
539.0
549.0
560.0
570.0
579.0
587.0
594.0
600.0
605.0
611.0
613.0
615.0
614.0
612.0
608.0
604.0
600.0
595.0
591.0
586.0
581.0
576.0
572.0
568.0
563.0
558.0
553.0
549.0
545.0
541.0
539.0
536.0
534.0
533.0
534.0
536.0
537.0
540.0
543.0
545.0
547.0
549.0
549.0
548.0
547.0
545.0
542.0
540.0
536.0
533.0
531.0
528.0
525.0
522.0
519.0
515.0
512.0
509.0
506.0
502.0
499.0
496.0
494.0
491.0
490.0
488.0
487.0
484.0
482.0
479.0
478.0
476.0
474.0
473.0
473.0
472.0
471.0
470.0
469.0
467.0
466.0
464.0
463.0
464.0
465.0
468.0
477.0
490.0
506.0
521.0
534.0
544.0
552.0
559.0
565.0
571.0
574.0
575.0
574.0
572.0
571.0
568.0
565.0
560.0
556.0
552.0
548.0
544.0
539.0
536.0
533.0
531.0
529.0
526.0
524.0
521.0
519.0
517.0
515.0
514.0
512.0
512.0
512.0
512.0
512.0
514.0
515.0
515.0
515.0
515.0
515.0
515.0
514.0
512.0
511.0
509.0
507.0
505.0
501.0
498.0
495.0
492.0
490.0
486.0
482.0
479.0
476.0
473.0
469.0
467.0
465.0
462.0
458.0
455.0
454.0
452.0
450.0
448.0
447.0
446.0
445.0
445.0
445.0
444.0
444.0
443.0
443.0
442.0
442.0
441.0
440.0
438.0
437.0
437.0
437.0
441.0
449.0
462.0
476.0
490.0
502.0
514.0
524.0
533.0
541.0
546.0
549.0
550.0
550.0
549.0
547.0
544.0
540.0
536.0
532.0
528.0
525.0
521.0
519.0
516.0
513.0
509.0
507.0
505.0
502.0
499.0
497.0
495.0
493.0
492.0
492.0
490.0
490.0
489.0
488.0
488.0
488.0
489.0
489.0
490.0
489.0
490.0
490.0
488.0
486.0
485.0
483.0
481.0
478.0
476.0
474.0
472.0
470.0
468.0
467.0
465.0
462.0
461.0
458.0
456.0
454.0
451.0
449.0
448.0
447.0
447.0
447.0
447.0
446.0
444.0
443.0
442.0
440.0
438.0
436.0
435.0
433.0
432.0
431.0
430.0
429.0
429.0
428.0
427.0
426.0
424.0
424.0
423.0
422.0
421.0
419.0
417.0
416.0
414.0
414.0
415.0
421.0
431.0
445.0
459.0
472.0
483.0
495.0
505.0
512.0
516.0
519.0
520.0
519.0
519.0
517.0
515.0
513.0
510.0
508.0
506.0
502.0
500.0
498.0
497.0
495.0
493.0
492.0
491.0
489.0
489.0
488.0
486.0
484.0
482.0
480.0
479.0
479.0
479.0
479.0
480.0
481.0
482.0
484.0
485.0
485.0
485.0
484.0
484.0
483.0
481.0
480.0
478.0
475.0
473.0
471.0
471.0
468.0
466.0
464.0
463.0
461.0
459.0
457.0
455.0
453.0
452.0
450.0
449.0
449.0
448.0
449.0
448.0
448.0
447.0
446.0
445.0
443.0
441.0
440.0
439.0
437.0
436.0
435.0
435.0
433.0
432.0
430.0
430.0
429.0
428.0
427.0
427.0
425.0
423.0
421.0
420.0
419.0
418.0
417.0
416.0
416.0
415.0
416.0
416.0
416.0
418.0
423.0
433.0
446.0
458.0
470.0
482.0
492.0
498.0
503.0
506.0
507.0
506.0
504.0
501.0
498.0
497.0
497.0
494.0
492.0
490.0
488.0
485.0
482.0
479.0
476.0
473.0
469.0
466.0
461.0
458.0
455.0
453.0
452.0
451.0
451.0
452.0
455.0
459.0
462.0
466.0
469.0
469.0
469.0
466.0
465.0
462.0
460.0
455.0
453.0
450.0
447.0
444.0
441.0
438.0
436.0
432.0
430.0
427.0
424.0
421.0
418.0
415.0
412.0
408.0
406.0
404.0
401.0
400.0
398.0
397.0
396.0
395.0
394.0
394.0
394.0
394.0
394.0
395.0
395.0
396.0
395.0
396.0
397.0
396.0
398.0
399.0
400.0
402.0
403.0
403.0
404.0
404.0
405.0
404.0
404.0
402.0
400.0
399.0
396.0
394.0
392.0
392.0
394.0
402.0
416.0
433.0
451.0
466.0
478.0
490.0
500.0
507.0
512.0
515.0
516.0
517.0
517.0
516.0
515.0
512.0
509.0
506.0
503.0
500.0
498.0
495.0
493.0
491.0
490.0
488.0
485.0
482.0
478.0
473.0
470.0
468.0
467.0
466.0
466.0
467.0
469.0
471.0
474.0
475.0
477.0
478.0
478.0
478.0
479.0
478.0
477.0
476.0
476.0
476.0
475.0
475.0
473.0
473.0
471.0
469.0
467.0
465.0
462.0
460.0
458.0
457.0
456.0
455.0
455.0
454.0
453.0
452.0
452.0
451.0
450.0
450.0
449.0
448.0
447.0
446.0
445.0
445.0
445.0
444.0
443.0
442.0
441.0
440.0
440.0
440.0
440.0
439.0
439.0
439.0
438.0
438.0
437.0
436.0
436.0
434.0
433.0
432.0
431.0
430.0
428.0
426.0
426.0
428.0
433.0
443.0
454.0
466.0
478.0
490.0
499.0
505.0
511.0
514.0
516.0
517.0
517.0
516.0
515.0
513.0
510.0
507.0
505.0
502.0
499.0
497.0
494.0
493.0
491.0
490.0
489.0
486.0
486.0
484.0
483.0
481.0
479.0
479.0
480.0
480.0
481.0
482.0
482.0
484.0
486.0
487.0
488.0
489.0
489.0
488.0
488.0
488.0
487.0
486.0
485.0
483.0
481.0
479.0
476.0
473.0
471.0
470.0
468.0
465.0
463.0
461.0
459.0
457.0
456.0
454.0
453.0
451.0
450.0
448.0
447.0
446.0
445.0
444.0
443.0
442.0
441.0
439.0
438.0
436.0
436.0
434.0
434.0
433.0
433.0
433.0
431.0
429.0
430.0
429.0
428.0
428.0
427.0
427.0
425.0
424.0
423.0
422.0
421.0
420.0
420.0
421.0
424.0
429.0
439.0
450.0
460.0
473.0
485.0
494.0
500.0
505.0
509.0
512.0
515.0
517.0
517.0
517.0
516.0
514.0
513.0
511.0
509.0
507.0
505.0
503.0
501.0
499.0
498.0
496.0
495.0
495.0
494.0
492.0
492.0
491.0
490.0
489.0
490.0
490.0
490.0
491.0
492.0
493.0
496.0
497.0
496.0
497.0
496.0
495.0
494.0
494.0
494.0
493.0
491.0
490.0
489.0
488.0
485.0
483.0
480.0
478.0
475.0
473.0
472.0
471.0
469.0
467.0
466.0
464.0
462.0
461.0
460.0
458.0
456.0
453.0
451.0
450.0
447.0
444.0
441.0
438.0
436.0
435.0
436.0
437.0
437.0
437.0
437.0
436.0
434.0
433.0
432.0
431.0
431.0
432.0
433.0
433.0
434.0
435.0
435.0
433.0
431.0
429.0
428.0
426.0
426.0
428.0
431.0
438.0
448.0
459.0
471.0
482.0
490.0
500.0
509.0
514.0
518.0
521.0
525.0
527.0
528.0
527.0
525.0
523.0
521.0
519.0
518.0
516.0
515.0
514.0
513.0
512.0
513.0
513.0
513.0
512.0
510.0
508.0
507.0
505.0
504.0
503.0
502.0
502.0
502.0
502.0
504.0
505.0
506.0
507.0
508.0
508.0
508.0
507.0
507.0
506.0
505.0
502.0
501.0
499.0
497.0
496.0
495.0
494.0
492.0
490.0
487.0
484.0
479.0
475.0
472.0
468.0
465.0
465.0
465.0
465.0
464.0
463.0
462.0
461.0
459.0
458.0
458.0
457.0
456.0
455.0
455.0
455.0
456.0
455.0
456.0
456.0
456.0
455.0
453.0
451.0
450.0
449.0
449.0
447.0
446.0
445.0
446.0
445.0
445.0
444.0
443.0
442.0
440.0
438.0
438.0
437.0
436.0
435.0
434.0
434.0
435.0
437.0
443.0
452.0
462.0
473.0
485.0
495.0
503.0
510.0
515.0
519.0
523.0
525.0
527.0
528.0
528.0
527.0
525.0
523.0
522.0
520.0
518.0
516.0
515.0
513.0
513.0
511.0
510.0
509.0
508.0
507.0
505.0
503.0
502.0
501.0
501.0
501.0
501.0
503.0
504.0
505.0
506.0
508.0
508.0
508.0
508.0
509.0
508.0
507.0
506.0
504.0
502.0
500.0
500.0
498.0
495.0
493.0
490.0
488.0
486.0
484.0
481.0
478.0
477.0
476.0
475.0
475.0
474.0
473.0
473.0
472.0
469.0
468.0
466.0
465.0
463.0
461.0
460.0
459.0
458.0
458.0
457.0
457.0
455.0
454.0
454.0
452.0
450.0
448.0
447.0
447.0
446.0
444.0
444.0
444.0
443.0
443.0
441.0
440.0
438.0
435.0
431.0
430.0
428.0
425.0
423.0
422.0
421.0
422.0
427.0
433.0
443.0
454.0
466.0
478.0
490.0
499.0
505.0
510.0
514.0
519.0
521.0
522.0
522.0
521.0
521.0
519.0
518.0
516.0
514.0
512.0
509.0
508.0
506.0
505.0
504.0
502.0
501.0
500.0
498.0
496.0
495.0
493.0
491.0
491.0
492.0
492.0
494.0
495.0
497.0
499.0
499.0
501.0
502.0
503.0
502.0
502.0
501.0
500.0
499.0
497.0
495.0
493.0
491.0
489.0
487.0
484.0
482.0
479.0
477.0
475.0
473.0
470.0
468.0
467.0
464.0
463.0
462.0
461.0
460.0
459.0
459.0
458.0
457.0
457.0
455.0
453.0
453.0
451.0
451.0
449.0
447.0
447.0
446.0
446.0
445.0
443.0
443.0
442.0
441.0
440.0
439.0
437.0
435.0
434.0
434.0
433.0
433.0
432.0
431.0
431.0
431.0
431.0
430.0
429.0
428.0
426.0
424.0
423.0
422.0
421.0
420.0
421.0
421.0
426.0
435.0
445.0
457.0
470.0
483.0
495.0
505.0
513.0
519.0
524.0
529.0
532.0
533.0
535.0
535.0
534.0
533.0
531.0
529.0
526.0
524.0
522.0
521.0
520.0
519.0
518.0
517.0
516.0
515.0
514.0
511.0
510.0
508.0
507.0
507.0
507.0
508.0
508.0
509.0
509.0
511.0
513.0
515.0
515.0
516.0
516.0
516.0
515.0
514.0
512.0
511.0
509.0
509.0
507.0
505.0
503.0
502.0
500.0
499.0
498.0
496.0
496.0
495.0
495.0
495.0
495.0
493.0
493.0
492.0
490.0
489.0
488.0
487.0
485.0
483.0
481.0
480.0
478.0
477.0
476.0
477.0
478.0
478.0
478.0
478.0
478.0
477.0
475.0
474.0
473.0
473.0
471.0
471.0
470.0
469.0
468.0
468.0
467.0
466.0
465.0
465.0
464.0
464.0
464.0
463.0
463.0
463.0
462.0
461.0
460.0
457.0
455.0
454.0
453.0
453.0
456.0
462.0
471.0
480.0
490.0
501.0
511.0
520.0
526.0
532.0
534.0
536.0
537.0
538.0
538.0
537.0
535.0
533.0
530.0
527.0
524.0
521.0
518.0
516.0
513.0
509.0
505.0
501.0
497.0
494.0
492.0
490.0
488.0
487.0
487.0
489.0
491.0
493.0
495.0
498.0
501.0
503.0
505.0
506.0
507.0
507.0
506.0
504.0
502.0
501.0
499.0
497.0
495.0
493.0
490.0
487.0
484.0
482.0
480.0
478.0
475.0
473.0
470.0
468.0
467.0
466.0
464.0
462.0
460.0
459.0
458.0
457.0
456.0
456.0
455.0
453.0
452.0
451.0
451.0
450.0
449.0
448.0
445.0
443.0
442.0
442.0
441.0
441.0
440.0
440.0
440.0
439.0
437.0
437.0
436.0
435.0
435.0
434.0
433.0
431.0
429.0
428.0
427.0
427.0
429.0
435.0
443.0
456.0
469.0
481.0
494.0
507.0
517.0
525.0
532.0
537.0
540.0
542.0
543.0
543.0
542.0
542.0
540.0
539.0
537.0
535.0
533.0
531.0
530.0
528.0
526.0
526.0
524.0
523.0
523.0
521.0
520.0
518.0
516.0
514.0
513.0
512.0
512.0
514.0
516.0
518.0
520.0
521.0
523.0
524.0
525.0
524.0
523.0
522.0
520.0
518.0
516.0
514.0
513.0
510.0
507.0
506.0
503.0
500.0
496.0
494.0
492.0
489.0
486.0
483.0
481.0
480.0
478.0
476.0
474.0
473.0
471.0
470.0
469.0
467.0
466.0
465.0
465.0
464.0
463.0
463.0
463.0
461.0
460.0
458.0
457.0
457.0
456.0
456.0
455.0
453.0
452.0
451.0
451.0
450.0
449.0
448.0
448.0
447.0
445.0
444.0
443.0
442.0
441.0
440.0
438.0
438.0
441.0
447.0
456.0
467.0
478.0
490.0
502.0
513.0
523.0
530.0
535.0
540.0
542.0
544.0
544.0
545.0
545.0
544.0
541.0
538.0
536.0
534.0
532.0
531.0
529.0
527.0
524.0
522.0
518.0
516.0
511.0
507.0
505.0
503.0
503.0
501.0
501.0
502.0
503.0
505.0
507.0
509.0
512.0
514.0
516.0
517.0
518.0
518.0
517.0
515.0
513.0
512.0
509.0
507.0
505.0
502.0
500.0
498.0
496.0
493.0
489.0
487.0
484.0
481.0
479.0
477.0
475.0
471.0
468.0
465.0
464.0
462.0
461.0
460.0
459.0
459.0
458.0
456.0
455.0
454.0
452.0
451.0
450.0
449.0
448.0
447.0
447.0
447.0
445.0
445.0
445.0
443.0
441.0
441.0
440.0
437.0
436.0
435.0
432.0
431.0
429.0
427.0
425.0
425.0
429.0
436.0
447.0
459.0
470.0
482.0
495.0
506.0
514.0
521.0
526.0
530.0
535.0
538.0
540.0
539.0
539.0
539.0
538.0
536.0
535.0
534.0
532.0
531.0
529.0
529.0
527.0
525.0
524.0
522.0
520.0
518.0
516.0
515.0
514.0
513.0
512.0
512.0
512.0
512.0
513.0
514.0
515.0
516.0
517.0
517.0
518.0
517.0
516.0
516.0
516.0
514.0
513.0
510.0
507.0
505.0
502.0
501.0
498.0
495.0
492.0
489.0
487.0
483.0
480.0
478.0
475.0
473.0
471.0
469.0
467.0
465.0
464.0
462.0
461.0
459.0
457.0
455.0
454.0
453.0
452.0
451.0
450.0
447.0
446.0
445.0
444.0
442.0
441.0
440.0
439.0
438.0
437.0
436.0
434.0
433.0
431.0
429.0
429.0
427.0
426.0
425.0
423.0
422.0
420.0
418.0
417.0
416.0
416.0
418.0
423.0
432.0
443.0
455.0
467.0
479.0
490.0
498.0
505.0
511.0
517.0
522.0
524.0
526.0
527.0
528.0
528.0
526.0
524.0
523.0
520.0
518.0
516.0
516.0
514.0
513.0
512.0
511.0
509.0
507.0
505.0
504.0
502.0
499.0
499.0
498.0
498.0
497.0
497.0
498.0
498.0
500.0
500.0
501.0
501.0
502.0
501.0
501.0
501.0
499.0
497.0
495.0
494.0
492.0
489.0
488.0
485.0
482.0
481.0
477.0
475.0
472.0
470.0
468.0
465.0
463.0
460.0
458.0
456.0
453.0
451.0
450.0
449.0
447.0
446.0
445.0
444.0
443.0
441.0
441.0
439.0
439.0
438.0
436.0
435.0
433.0
433.0
431.0
431.0
429.0
427.0
426.0
425.0
424.0
423.0
422.0
421.0
418.0
417.0
415.0
414.0
412.0
411.0
409.0
408.0
407.0
405.0
403.0
402.0
400.0
398.0
398.0
401.0
407.0
416.0
429.0
441.0
452.0
464.0
476.0
486.0
494.0
501.0
505.0
509.0
513.0
515.0
516.0
516.0
515.0
513.0
511.0
509.0
506.0
504.0
502.0
500.0
498.0
495.0
494.0
493.0
491.0
489.0
488.0
486.0
484.0
483.0
483.0
482.0
482.0
482.0
483.0
485.0
487.0
487.0
488.0
488.0
489.0
490.0
490.0
490.0
490.0
489.0
488.0
486.0
484.0
481.0
479.0
478.0
474.0
473.0
470.0
467.0
465.0
463.0
461.0
458.0
456.0
453.0
450.0
449.0
447.0
446.0
444.0
443.0
443.0
442.0
441.0
441.0
439.0
438.0
437.0
436.0
434.0
434.0
432.0
432.0
432.0
431.0
431.0
431.0
430.0
430.0
430.0
430.0
431.0
431.0
432.0
433.0
432.0
432.0
432.0
430.0
428.0
425.0
423.0
421.0
419.0
416.0
415.0
412.0
412.0
413.0
417.0
424.0
434.0
443.0
455.0
466.0
477.0
489.0
498.0
505.0
510.0
515.0
519.0
521.0
522.0
523.0
523.0
523.0
522.0
521.0
520.0
517.0
515.0
513.0
510.0
508.0
506.0
504.0
502.0
500.0
497.0
496.0
494.0
494.0
493.0
493.0
492.0
492.0
492.0
493.0
495.0
496.0
498.0
502.0
504.0
505.0
505.0
505.0
505.0
505.0
503.0
502.0
500.0
497.0
494.0
491.0
488.0
484.0
481.0
478.0
475.0
471.0
468.0
464.0
462.0
460.0
458.0
455.0
454.0
452.0
450.0
448.0
447.0
445.0
443.0
440.0
439.0
437.0
437.0
436.0
434.0
434.0
433.0
432.0
431.0
430.0
430.0
427.0
426.0
425.0
424.0
422.0
421.0
419.0
417.0
415.0
413.0
411.0
409.0
407.0
407.0
409.0
415.0
423.0
434.0
446.0
457.0
468.0
479.0
489.0
498.0
504.0
508.0
513.0
515.0
517.0
518.0
518.0
517.0
516.0
515.0
513.0
510.0
508.0
506.0
504.0
503.0
502.0
501.0
498.0
496.0
493.0
491.0
487.0
485.0
483.0
482.0
481.0
480.0
479.0
480.0
480.0
481.0
482.0
483.0
483.0
484.0
485.0
484.0
483.0
482.0
481.0
481.0
479.0
478.0
477.0
474.0
473.0
471.0
468.0
467.0
465.0
462.0
458.0
456.0
454.0
451.0
449.0
447.0
446.0
444.0
442.0
440.0
439.0
438.0
436.0
435.0
434.0
433.0
431.0
430.0
430.0
429.0
428.0
427.0
428.0
427.0
426.0
426.0
426.0
424.0
424.0
423.0
421.0
420.0
418.0
417.0
416.0
414.0
413.0
412.0
410.0
409.0
410.0
414.0
420.0
429.0
439.0
450.0
462.0
473.0
482.0
490.0
497.0
501.0
505.0
507.0
508.0
508.0
508.0
507.0
507.0
506.0
505.0
505.0
503.0
502.0
500.0
499.0
498.0
497.0
495.0
494.0
492.0
490.0
488.0
487.0
485.0
483.0
482.0
481.0
482.0
483.0
482.0
482.0
481.0
482.0
481.0
482.0
482.0
481.0
480.0
479.0
478.0
477.0
475.0
474.0
471.0
469.0
465.0
463.0
460.0
458.0
455.0
454.0
452.0
451.0
449.0
447.0
446.0
445.0
443.0
442.0
441.0
439.0
437.0
436.0
435.0
435.0
433.0
433.0
432.0
432.0
432.0
431.0
430.0
430.0
429.0
428.0
427.0
427.0
426.0
425.0
424.0
423.0
422.0
421.0
420.0
420.0
418.0
417.0
415.0
413.0
413.0
414.0
416.0
422.0
429.0
438.0
448.0
459.0
469.0
477.0
484.0
490.0
494.0
497.0
500.0
502.0
502.0
503.0
503.0
503.0
501.0
499.0
498.0
497.0
496.0
495.0
493.0
492.0
490.0
489.0
488.0
486.0
484.0
482.0
481.0
481.0
480.0
480.0
480.0
481.0
481.0
482.0
483.0
484.0
485.0
487.0
487.0
488.0
487.0
487.0
486.0
485.0
483.0
481.0
480.0
479.0
476.0
476.0
474.0
472.0
470.0
469.0
467.0
466.0
464.0
463.0
461.0
459.0
458.0
457.0
456.0
455.0
454.0
453.0
452.0
452.0
452.0
451.0
451.0
450.0
449.0
447.0
447.0
446.0
444.0
444.0
443.0
442.0
441.0
440.0
439.0
438.0
437.0
437.0
439.0
444.0
450.0
458.0
465.0
473.0
479.0
485.0
490.0
495.0
498.0
500.0
503.0
503.0
503.0
503.0
502.0
501.0
499.0
498.0
497.0
496.0
494.0
493.0
492.0
491.0
489.0
488.0
486.0
484.0
482.0
481.0
479.0
479.0
479.0
479.0
479.0
481.0
482.0
482.0
483.0
484.0
485.0
486.0
484.0
483.0
483.0
483.0
483.0
482.0
481.0
479.0
477.0
476.0
474.0
473.0
472.0
470.0
469.0
468.0
466.0
465.0
463.0
462.0
459.0
457.0
454.0
452.0
450.0
447.0
444.0
442.0
441.0
441.0
441.0
440.0
440.0
439.0
439.0
439.0
438.0
438.0
436.0
435.0
434.0
432.0
431.0
430.0
429.0
429.0
429.0
429.0
429.0
428.0
428.0
427.0
427.0
426.0
426.0
428.0
433.0
439.0
446.0
454.0
461.0
469.0
475.0
481.0
486.0
489.0
492.0
494.0
495.0
496.0
498.0
499.0
498.0
498.0
498.0
498.0
498.0
497.0
498.0
498.0
498.0
499.0
499.0
498.0
497.0
496.0
496.0
495.0
494.0
496.0
495.0
496.0
496.0
496.0
495.0
496.0
496.0
496.0
496.0
496.0
497.0
498.0
497.0
498.0
498.0
498.0
496.0
496.0
495.0
493.0
491.0
490.0
487.0
486.0
484.0
483.0
482.0
481.0
479.0
478.0
477.0
476.0
475.0
474.0
472.0
472.0
469.0
469.0
468.0
467.0
466.0
466.0
465.0
464.0
463.0
463.0
463.0
463.0
462.0
460.0
459.0
457.0
455.0
455.0
454.0
453.0
451.0
450.0
449.0
449.0
447.0
447.0
447.0
445.0
445.0
445.0
443.0
442.0
441.0
439.0
437.0
436.0
435.0
435.0
436.0
441.0
447.0
455.0
463.0
471.0
478.0
484.0
491.0
495.0
499.0
502.0
505.0
506.0
507.0
508.0
508.0
507.0
507.0
507.0
506.0
506.0
505.0
504.0
503.0
501.0
501.0
501.0
502.0
501.0
499.0
498.0
497.0
496.0
494.0
493.0
492.0
492.0
492.0
492.0
493.0
494.0
495.0
495.0
495.0
495.0
494.0
495.0
494.0
494.0
493.0
493.0
491.0
490.0
488.0
488.0
485.0
484.0
482.0
480.0
479.0
477.0
476.0
475.0
473.0
472.0
471.0
470.0
468.0
467.0
466.0
464.0
463.0
462.0
460.0
460.0
459.0
460.0
459.0
460.0
459.0
458.0
457.0
457.0
455.0
454.0
452.0
452.0
450.0
450.0
449.0
449.0
448.0
447.0
445.0
444.0
442.0
441.0
440.0
439.0
439.0
437.0
435.0
435.0
433.0
433.0
432.0
431.0
430.0
429.0
427.0
425.0
424.0
423.0
422.0
420.0
419.0
419.0
418.0
420.0
424.0
431.0
438.0
446.0
455.0
462.0
468.0
474.0
478.0
482.0
485.0
487.0
488.0
489.0
490.0
490.0
490.0
489.0
487.0
487.0
485.0
483.0
482.0
481.0
480.0
479.0
480.0
480.0
481.0
481.0
479.0
478.0
476.0
475.0
467.0
465.0
468.0
475.0
484.0
494.0
503.0
511.0
517.0
522.0
526.0
530.0
532.0
533.0
532.0
530.0
527.0
523.0
518.0
513.0
509.0
506.0
505.0
505.0
506.0
507.0
508.0
508.0
508.0
508.0
507.0
505.0
502.0
499.0
496.0
491.0
489.0
487.0
487.0
487.0
487.0
489.0
491.0
492.0
494.0
495.0
496.0
496.0
496.0
495.0
492.0
489.0
487.0
485.0
483.0
481.0
478.0
477.0
476.0
475.0
474.0
474.0
473.0
472.0
470.0
470.0
469.0
468.0
466.0
466.0
464.0
463.0
461.0
460.0
458.0
456.0
453.0
452.0
451.0
450.0
449.0
449.0
452.0
456.0
462.0
469.0
475.0
481.0
487.0
492.0
497.0
500.0
502.0
505.0
506.0
506.0
505.0
505.0
504.0
503.0
501.0
501.0
499.0
499.0
497.0
495.0
493.0
490.0
489.0
487.0
484.0
483.0
481.0
480.0
480.0
480.0
480.0
481.0
482.0
482.0
482.0
484.0
485.0
486.0
488.0
489.0
489.0
489.0
489.0
489.0
489.0
488.0
487.0
486.0
484.0
482.0
481.0
479.0
477.0
476.0
475.0
474.0
471.0
470.0
468.0
467.0
465.0
464.0
461.0
460.0
459.0
458.0
458.0
457.0
456.0
455.0
453.0
454.0
452.0
451.0
450.0
449.0
447.0
447.0
446.0
446.0
446.0
445.0
445.0
445.0
444.0
444.0
443.0
442.0
441.0
440.0
438.0
437.0
436.0
435.0
435.0
434.0
433.0
432.0
430.0
430.0
432.0
435.0
440.0
447.0
453.0
462.0
468.0
475.0
481.0
486.0
490.0
493.0
495.0
497.0
497.0
498.0
497.0
495.0
493.0
491.0
490.0
489.0
487.0
486.0
483.0
481.0
479.0
477.0
475.0
472.0
470.0
468.0
467.0
466.0
464.0
465.0
466.0
467.0
468.0
469.0
470.0
472.0
472.0
473.0
473.0
473.0
473.0
473.0
472.0
472.0
471.0
470.0
470.0
469.0
467.0
464.0
463.0
462.0
459.0
458.0
457.0
456.0
454.0
453.0
451.0
449.0
447.0
446.0
445.0
443.0
443.0
442.0
442.0
440.0
439.0
439.0
438.0
436.0
435.0
434.0
433.0
433.0
433.0
433.0
432.0
432.0
431.0
429.0
428.0
425.0
423.0
421.0
420.0
422.0
421.0
421.0
421.0
422.0
423.0
427.0
430.0
435.0
440.0
446.0
452.0
458.0
463.0
467.0
470.0
471.0
473.0
473.0
475.0
475.0
474.0
473.0
472.0
470.0
470.0
469.0
468.0
467.0
466.0
465.0
463.0
462.0
460.0
459.0
456.0
455.0
454.0
453.0
453.0
453.0
454.0
454.0
455.0
456.0
456.0
457.0
457.0
458.0
457.0
459.0
461.0
462.0
463.0
465.0
465.0
465.0
465.0
465.0
465.0
464.0
463.0
462.0
461.0
459.0
458.0
457.0
455.0
453.0
450.0
449.0
447.0
446.0
445.0
444.0
443.0
443.0
444.0
444.0
443.0
444.0
443.0
442.0
441.0
440.0
439.0
438.0
436.0
435.0
436.0
437.0
439.0
441.0
445.0
449.0
456.0
463.0
470.0
474.0
480.0
485.0
488.0
492.0
492.0
491.0
487.0
485.0
485.0
487.0
493.0
501.0
507.0
513.0
517.0
520.0
521.0
521.0
518.0
516.0
518.0
518.0
515.0
514.0
515.0
506.0
502.0
499.0
497.0
494.0
492.0
490.0
488.0
486.0
483.0
480.0
479.0
478.0
475.0
474.0
472.0
469.0
466.0
466.0
466.0
468.0
471.0
477.0
479.0
478.0
479.0
479.0
474.0
467.0
457.0
452.0
453.0
461.0
468.0
479.0
487.0
494.0
502.0
509.0
518.0
523.0
524.0
524.0
522.0
520.0
516.0
508.0
500.0
493.0
491.0
491.0
497.0
506.0
516.0
525.0
535.0
547.0
555.0
561.0
564.0
565.0
563.0
560.0
555.0
549.0
543.0
538.0
535.0
531.0
528.0
526.0
525.0
526.0
527.0
526.0
526.0
521.0
517.0
514.0
509.0
506.0
504.0
505.0
505.0
505.0
501.0
499.0
498.0
495.0
492.0
492.0
492.0
491.0
492.0
491.0
490.0
490.0
489.0
488.0
487.0
485.0
484.0
482.0
479.0
478.0
476.0
473.0
471.0
469.0
468.0
467.0
466.0
466.0
465.0
465.0
464.0
462.0
461.0
460.0
459.0
457.0
457.0
456.0
455.0
455.0
455.0
454.0
453.0
453.0
452.0
450.0
450.0
449.0
448.0
449.0
449.0
450.0
451.0
454.0
455.0
456.0
456.0
456.0
456.0
456.0
456.0
457.0
458.0
460.0
460.0
460.0
459.0
459.0
458.0
457.0
454.0
449.0
443.0
436.0
432.0
427.0
422.0
417.0
413.0
408.0
400.0
396.0
388.0
381.0
374.0
369.0
367.0
364.0
363.0
363.0
363.0
364.0
364.0
365.0
366.0
366.0
367.0
367.0
367.0
367.0
367.0
366.0
365.0
362.0
358.0
356.0
352.0
345.0
334.0
319.0
298.0
272.0
254.0
227.0
205.0
203.0
223.0
256.0
297.0
340.0
384.0
419.0
443.0
456.0
448.0
403.0
346.0
316.0
302.0
286.0
273.0
263.0
256.0
253.0
247.0
238.0
229.0
220.0
213.0
206.0
201.0
197.0
194.0
193.0
192.0
193.0
197.0
199.0
201.0
203.0
206.0
209.0
212.0
215.0
216.0
219.0
222.0
226.0
231.0
234.0
238.0
241.0
244.0
247.0
249.0
253.0
256.0
260.0
263.0
267.0
270.0
273.0
276.0
279.0
282.0
284.0
286.0
290.0
294.0
299.0
303.0
305.0
307.0
307.0
306.0
304.0
303.0
302.0
302.0
301.0
302.0
302.0
301.0
301.0
303.0
307.0
311.0
315.0
317.0
319.0
322.0
326.0
329.0
333.0
338.0
344.0
350.0
356.0
360.0
366.0
373.0
378.0
383.0
389.0
393.0
396.0
398.0
399.0
399.0
399.0
397.0
395.0
393.0
392.0
392.0
392.0
392.0
393.0
393.0
392.0
393.0
391.0
390.0
389.0
388.0
389.0
389.0
389.0
389.0
391.0
392.0
395.0
396.0
397.0
397.0
397.0
398.0
398.0
399.0
400.0
399.0
400.0
399.0
399.0
399.0
399.0
398.0
397.0
396.0
396.0
396.0
397.0
396.0
396.0
395.0
395.0
393.0
392.0
391.0
390.0
389.0
388.0
388.0
387.0
386.0
387.0
388.0
391.0
394.0
399.0
405.0
411.0
416.0
419.0
420.0
423.0
425.0
425.0
427.0
429.0
429.0
429.0
428.0
428.0
427.0
424.0
422.0
421.0
419.0
417.0
415.0
414.0
413.0
410.0
408.0
407.0
408.0
409.0
408.0
410.0
411.0
413.0
414.0
417.0
418.0
421.0
423.0
424.0
425.0
427.0
428.0
429.0
431.0
430.0
429.0
429.0
428.0
428.0
428.0
428.0
428.0
427.0
426.0
425.0
425.0
424.0
424.0
424.0
423.0
423.0
423.0
423.0
423.0
423.0
423.0
424.0
423.0
423.0
422.0
422.0
423.0
423.0
425.0
427.0
430.0
434.0
438.0
442.0
445.0
447.0
450.0
451.0
453.0
454.0
453.0
455.0
455.0
457.0
455.0
454.0
452.0
451.0
449.0
448.0
446.0
445.0
444.0
445.0
445.0
445.0
445.0
446.0
446.0
445.0
444.0
444.0
446.0
447.0
446.0
445.0
444.0
443.0
441.0
441.0
439.0
439.0
439.0
440.0
442.0
445.0
443.0
445.0
445.0
445.0
447.0
449.0
450.0
449.0
447.0
445.0
445.0
444.0
441.0
440.0
436.0
435.0
434.0
432.0
430.0
428.0
428.0
428.0
430.0
432.0
431.0
433.0
434.0
432.0
429.0
426.0
424.0
424.0
424.0
426.0
428.0
430.0
431.0
433.0
436.0
440.0
443.0
447.0
450.0
451.0
452.0
452.0
454.0
454.0
454.0
453.0
453.0
452.0
451.0
450.0
450.0
449.0
449.0
449.0
450.0
450.0
450.0
450.0
449.0
449.0
447.0
446.0
445.0
442.0
439.0
437.0
435.0
432.0
430.0
429.0
425.0
422.0
419.0
415.0
415.0
418.0
423.0
432.0
445.0
458.0
466.0
468.0
465.0
463.0
463.0
467.0
471.0
472.0
473.0
475.0
477.0
480.0
483.0
489.0
492.0
495.0
498.0
503.0
506.0
509.0
513.0
517.0
521.0
526.0
534.0
544.0
555.0
566.0
578.0
589.0
600.0
609.0
619.0
628.0
637.0
645.0
655.0
667.0
679.0
689.0
698.0
703.0
707.0
709.0
712.0
714.0
716.0
716.0
714.0
712.0
707.0
700.0
695.0
690.0
684.0
677.0
671.0
665.0
659.0
651.0
645.0
640.0
636.0
635.0
634.0
633.0
631.0
631.0
629.0
631.0
634.0
640.0
646.0
649.0
649.0
648.0
645.0
642.0
638.0
635.0
631.0
629.0
629.0
630.0
631.0
633.0
632.0
627.0
620.0
608.0
588.0
569.0
554.0
547.0
548.0
551.0
556.0
561.0
567.0
569.0
570.0
571.0
571.0
568.0
564.0
561.0
557.0
554.0
552.0
553.0
553.0
555.0
559.0
563.0
568.0
570.0
573.0
578.0
584.0
591.0
596.0
596.0
588.0
579.0
572.0
571.0
575.0
585.0
598.0
611.0
618.0
619.0
611.0
599.0
586.0
578.0
575.0
576.0
581.0
586.0
594.0
606.0
617.0
631.0
643.0
646.0
640.0
638.0
649.0
665.0
681.0
692.0
697.0
692.0
679.0
664.0
650.0
640.0
634.0
628.0
621.0
619.0
611.0
602.0
590.0
579.0
572.0
572.0
570.0
565.0
559.0
553.0
548.0
547.0
549.0
552.0
555.0
560.0
563.0
563.0
558.0
555.0
549.0
539.0
526.0
511.0
496.0
480.0
462.0
447.0
431.0
417.0
401.0
390.0
379.0
369.0
363.0
359.0
352.0
346.0
337.0
327.0
316.0
305.0
292.0
279.0
270.0
265.0
260.0
258.0
263.0
268.0
268.0
271.0
273.0
273.0
268.0
265.0
262.0
263.0
269.0
275.0
280.0
285.0
291.0
295.0
297.0
300.0
304.0
307.0
309.0
310.0
311.0
312.0
314.0
314.0
313.0
314.0
316.0
318.0
320.0
320.0
318.0
314.0
308.0
302.0
295.0
294.0
297.0
300.0
301.0
306.0
315.0
323.0
328.0
337.0
346.0
354.0
362.0
366.0
373.0
379.0
381.0
378.0
375.0
370.0
363.0
359.0
356.0
355.0
355.0
356.0
358.0
362.0
362.0
361.0
362.0
361.0
361.0
360.0
359.0
357.0
355.0
352.0
350.0
349.0
345.0
343.0
343.0
345.0
345.0
346.0
348.0
352.0
354.0
357.0
362.0
370.0
376.0
380.0
387.0
389.0
385.0
391.0
394.0
395.0
392.0
387.0
385.0
391.0
397.0
403.0
410.0
413.0
416.0
421.0
425.0
429.0
432.0
438.0
439.0
443.0
447.0
450.0
453.0
453.0
450.0
443.0
428.0
430.0
429.0
427.0
426.0
426.0
425.0
427.0
433.0
444.0
453.0
458.0
469.0
477.0
483.0
482.0
477.0
472.0
464.0
455.0
444.0
435.0
421.0
405.0
404.0
403.0
405.0
410.0
418.0
424.0
427.0
437.0
451.0
458.0
461.0
468.0
474.0
478.0
479.0
481.0
484.0
489.0
493.0
494.0
491.0
478.0
469.0
462.0
453.0
457.0
458.0
458.0
457.0
458.0
461.0
464.0
471.0
474.0
485.0
494.0
502.0
507.0
513.0
514.0
509.0
509.0
498.0
492.0
496.0
498.0
495.0
497.0
497.0
501.0
506.0
510.0
511.0
513.0
511.0
513.0
512.0
508.0
506.0
506.0
501.0
491.0
491.0
488.0
486.0
486.0
487.0
491.0
495.0
495.0
493.0
493.0
495.0
495.0
495.0
501.0
511.0
517.0
522.0
525.0
525.0
524.0
523.0
521.0
520.0
518.0
517.0
517.0
510.0
504.0
500.0
498.0
495.0
484.0
482.0
478.0
472.0
471.0
470.0
468.0
466.0
465.0
463.0
463.0
464.0
466.0
466.0
466.0
465.0
463.0
459.0
458.0
456.0
453.0
454.0
455.0
457.0
460.0
463.0
468.0
474.0
478.0
482.0
485.0
486.0
490.0
491.0
493.0
493.0
493.0
489.0
488.0
489.0
487.0
484.0
481.0
478.0
475.0
470.0
468.0
467.0
465.0
459.0
459.0
459.0
457.0
455.0
454.0
453.0
453.0
454.0
454.0
458.0
460.0
462.0
463.0
461.0
462.0
466.0
468.0
474.0
480.0
484.0
489.0
493.0
498.0
502.0
504.0
508.0
511.0
515.0
520.0
524.0
529.0
534.0
540.0
545.0
552.0
560.0
565.0
570.0
574.0
581.0
588.0
595.0
601.0
606.0
612.0
616.0
624.0
630.0
635.0
641.0
651.0
663.0
675.0
684.0
690.0
692.0
691.0
691.0
691.0
695.0
700.0
708.0
715.0
724.0
735.0
745.0
754.0
760.0
763.0
758.0
742.0
726.0
714.0
707.0
700.0
692.0
685.0
686.0
687.0
687.0
681.0
673.0
664.0
654.0
643.0
636.0
630.0
625.0
619.0
613.0
608.0
604.0
600.0
598.0
597.0
594.0
588.0
581.0
575.0
572.0
568.0
563.0
561.0
557.0
552.0
546.0
544.0
544.0
542.0
540.0
536.0
531.0
527.0
524.0
523.0
521.0
521.0
523.0
527.0
531.0
537.0
542.0
546.0
548.0
545.0
536.0
530.0
528.0
529.0
527.0
526.0
528.0
534.0
542.0
553.0
563.0
573.0
583.0
590.0
595.0
599.0
603.0
608.0
611.0
613.0
615.0
615.0
613.0
612.0
611.0
610.0
610.0
607.0
602.0
598.0
593.0
589.0
582.0
575.0
567.0
559.0
553.0
551.0
551.0
552.0
553.0
554.0
555.0
553.0
552.0
550.0
550.0
549.0
547.0
545.0
543.0
540.0
536.0
532.0
529.0
526.0
523.0
521.0
521.0
520.0
518.0
517.0
514.0
510.0
509.0
508.0
509.0
510.0
510.0
513.0
514.0
513.0
510.0
510.0
509.0
511.0
514.0
517.0
521.0
523.0
524.0
524.0
523.0
524.0
525.0
527.0
529.0
531.0
532.0
534.0
536.0
541.0
545.0
548.0
550.0
551.0
548.0
546.0
546.0
546.0
547.0
549.0
551.0
552.0
552.0
552.0
553.0
555.0
555.0
555.0
554.0
553.0
551.0
550.0
548.0
547.0
544.0
544.0
544.0
544.0
546.0
549.0
552.0
553.0
554.0
554.0
553.0
552.0
550.0
548.0
547.0
547.0
549.0
551.0
553.0
554.0
555.0
556.0
555.0
555.0
555.0
559.0
565.0
571.0
576.0
578.0
579.0
579.0
579.0
577.0
577.0
578.0
580.0
581.0
581.0
581.0
581.0
581.0
583.0
584.0
585.0
586.0
588.0
587.0
588.0
590.0
591.0
592.0
594.0
598.0
602.0
602.0
601.0
599.0
596.0
593.0
592.0
591.0
592.0
594.0
595.0
595.0
595.0
595.0
593.0
591.0
588.0
586.0
583.0
581.0
580.0
580.0
581.0
582.0
581.0
579.0
577.0
574.0
571.0
568.0
566.0
566.0
570.0
579.0
590.0
603.0
614.0
625.0
633.0
640.0
644.0
647.0
649.0
649.0
646.0
644.0
642.0
639.0
636.0
632.0
627.0
622.0
618.0
613.0
610.0
605.0
600.0
596.0
590.0
585.0
580.0
576.0
573.0
574.0
576.0
575.0
573.0
570.0
565.0
562.0
561.0
561.0
563.0
564.0
564.0
564.0
561.0
557.0
554.0
551.0
548.0
547.0
546.0
546.0
545.0
543.0
538.0
534.0
529.0
528.0
528.0
528.0
528.0
526.0
523.0
523.0
524.0
525.0
525.0
526.0
525.0
526.0
528.0
528.0
529.0
528.0
528.0
530.0
534.0
538.0
541.0
546.0
549.0
554.0
558.0
564.0
569.0
575.0
580.0
585.0
591.0
597.0
603.0
610.0
615.0
621.0
626.0
631.0
635.0
638.0
640.0
641.0
640.0
640.0
641.0
643.0
645.0
645.0
643.0
644.0
644.0
643.0
641.0
640.0
640.0
641.0
643.0
645.0
648.0
650.0
652.0
654.0
655.0
657.0
661.0
663.0
663.0
660.0
655.0
648.0
637.0
625.0
616.0
610.0
605.0
601.0
597.0
592.0
588.0
583.0
579.0
579.0
579.0
584.0
593.0
606.0
623.0
637.0
648.0
656.0
662.0
662.0
660.0
657.0
653.0
650.0
647.0
645.0
641.0
633.0
620.0
606.0
591.0
581.0
571.0
560.0
550.0
542.0
531.0
524.0
518.0
509.0
498.0
484.0
472.0
462.0
453.0
447.0
446.0
447.0
449.0
453.0
455.0
455.0
456.0
459.0
462.0
463.0
465.0
468.0
469.0
470.0
471.0
475.0
476.0
473.0
466.0
458.0
446.0
433.0
417.0
402.0
383.0
365.0
351.0
342.0
337.0
340.0
342.0
344.0
345.0
346.0
345.0
346.0
347.0
350.0
354.0
360.0
365.0
370.0
376.0
382.0
388.0
394.0
399.0
402.0
406.0
409.0
413.0
416.0
418.0
419.0
421.0
425.0
427.0
431.0
434.0
437.0
438.0
437.0
435.0
435.0
435.0
436.0
435.0
436.0
435.0
433.0
433.0
434.0
434.0
434.0
432.0
432.0
432.0
432.0
433.0
434.0
436.0
438.0
441.0
442.0
444.0
447.0
450.0
452.0
454.0
454.0
454.0
454.0
455.0
457.0
458.0
459.0
461.0
463.0
464.0
466.0
466.0
466.0
466.0
466.0
466.0
464.0
463.0
463.0
462.0
463.0
462.0
460.0
459.0
459.0
460.0
461.0
463.0
464.0
464.0
464.0
465.0
465.0
465.0
464.0
465.0
464.0
465.0
467.0
469.0
471.0
472.0
473.0
472.0
472.0
473.0
473.0
473.0
470.0
468.0
467.0
467.0
467.0
468.0
469.0
469.0
469.0
469.0
470.0
473.0
473.0
471.0
471.0
470.0
472.0
474.0
478.0
479.0
482.0
484.0
485.0
486.0
487.0
486.0
487.0
488.0
489.0
488.0
487.0
486.0
487.0
487.0
487.0
489.0
493.0
496.0
497.0
496.0
495.0
494.0
494.0
492.0
492.0
491.0
489.0
487.0
484.0
483.0
482.0
482.0
481.0
480.0
481.0
482.0
483.0
481.0
480.0
479.0
477.0
474.0
472.0
471.0
470.0
470.0
472.0
474.0
477.0
479.0
481.0
482.0
480.0
477.0
478.0
478.0
478.0
478.0
479.0
479.0
480.0
480.0
480.0
480.0
480.0
479.0
481.0
483.0
485.0
486.0
489.0
490.0
491.0
491.0
491.0
492.0
492.0
489.0
488.0
488.0
487.0
486.0
485.0
484.0
483.0
482.0
482.0
479.0
477.0
477.0
475.0
473.0
469.0
464.0
464.0
465.0
466.0
465.0
465.0
465.0
465.0
466.0
468.0
470.0
473.0
473.0
472.0
471.0
472.0
472.0
473.0
475.0
477.0
478.0
475.0
470.0
461.0
450.0
442.0
436.0
436.0
436.0
439.0
441.0
443.0
446.0
450.0
451.0
450.0
447.0
444.0
439.0
439.0
441.0
446.0
450.0
451.0
447.0
444.0
443.0
444.0
443.0
443.0
443.0
444.0
443.0
447.0
451.0
452.0
450.0
447.0
443.0
439.0
437.0
436.0
437.0
439.0
442.0
446.0
450.0
451.0
452.0
453.0
455.0
455.0
454.0
454.0
453.0
453.0
455.0
458.0
459.0
459.0
457.0
455.0
454.0
455.0
456.0
459.0
462.0
464.0
466.0
466.0
465.0
463.0
462.0
462.0
463.0
463.0
464.0
465.0
464.0
464.0
465.0
466.0
466.0
466.0
466.0
467.0
469.0
470.0
471.0
469.0
470.0
471.0
473.0
475.0
476.0
475.0
474.0
473.0
472.0
470.0
468.0
469.0
470.0
472.0
476.0
479.0
479.0
476.0
471.0
466.0
461.0
456.0
455.0
455.0
456.0
458.0
457.0
458.0
458.0
459.0
460.0
460.0
461.0
462.0
463.0
467.0
472.0
477.0
481.0
484.0
484.0
484.0
483.0
482.0
482.0
482.0
483.0
486.0
490.0
494.0
499.0
502.0
503.0
499.0
496.0
493.0
491.0
494.0
495.0
495.0
495.0
499.0
502.0
504.0
504.0
507.0
509.0
511.0
516.0
517.0
516.0
514.0
509.0
507.0
506.0
503.0
500.0
495.0
490.0
487.0
484.0
483.0
483.0
482.0
478.0
474.0
470.0
466.0
464.0
463.0
465.0
467.0
470.0
473.0
475.0
481.0
484.0
486.0
487.0
489.0
489.0
488.0
486.0
486.0
485.0
484.0
484.0
489.0
493.0
499.0
502.0
503.0
501.0
496.0
491.0
491.0
489.0
490.0
492.0
498.0
505.0
510.0
506.0
502.0
496.0
491.0
488.0
485.0
483.0
485.0
487.0
491.0
493.0
495.0
495.0
498.0
502.0
506.0
510.0
513.0
518.0
524.0
527.0
529.0
530.0
529.0
526.0
524.0
523.0
521.0
520.0
518.0
516.0
516.0
518.0
521.0
526.0
529.0
530.0
535.0
538.0
542.0
544.0
545.0
546.0
546.0
546.0
545.0
545.0
546.0
546.0
546.0
546.0
547.0
549.0
551.0
552.0
553.0
554.0
554.0
557.0
562.0
565.0
567.0
567.0
567.0
566.0
566.0
563.0
561.0
558.0
557.0
556.0
554.0
554.0
553.0
550.0
547.0
545.0
548.0
552.0
558.0
562.0
563.0
562.0
558.0
551.0
544.0
538.0
530.0
524.0
519.0
510.0
501.0
496.0
493.0
487.0
479.0
470.0
462.0
459.0
459.0
462.0
466.0
470.0
474.0
480.0
482.0
479.0
475.0
470.0
469.0
472.0
476.0
484.0
490.0
497.0
502.0
507.0
510.0
515.0
521.0
528.0
535.0
540.0
548.0
556.0
561.0
562.0
559.0
553.0
545.0
531.0
516.0
504.0
496.0
495.0
499.0
507.0
520.0
530.0
536.0
538.0
539.0
540.0
539.0
538.0
535.0
527.0
518.0
512.0
507.0
502.0
495.0
487.0
477.0
467.0
459.0
453.0
451.0
451.0
454.0
459.0
459.0
460.0
467.0
473.0
479.0
483.0
481.0
476.0
473.0
471.0
466.0
462.0
462.0
466.0
468.0
473.0
479.0
481.0
483.0
482.0
482.0
484.0
487.0
489.0
492.0
496.0
499.0
499.0
500.0
498.0
497.0
499.0
502.0
506.0
512.0
525.0
544.0
559.0
568.0
572.0
570.0
565.0
562.0
561.0
561.0
558.0
553.0
552.0
551.0
552.0
552.0
555.0
561.0
566.0
572.0
577.0
583.0
589.0
592.0
593.0
592.0
592.0
591.0
586.0
577.0
564.0
556.0
550.0
548.0
537.0
524.0
511.0
506.0
511.0
529.0
551.0
573.0
588.0
599.0
602.0
605.0
609.0
611.0
609.0
605.0
598.0
593.0
587.0
576.0
562.0
548.0
535.0
528.0
527.0
525.0
522.0
518.0
518.0
515.0
512.0
504.0
498.0
493.0
491.0
490.0
490.0
489.0
487.0
484.0
480.0
478.0
478.0
481.0
484.0
489.0
493.0
496.0
497.0
499.0
499.0
499.0
497.0
495.0
495.0
496.0
500.0
505.0
507.0
507.0
505.0
504.0
506.0
503.0
503.0
498.0
493.0
487.0
482.0
477.0
475.0
474.0
474.0
473.0
471.0
470.0
469.0
467.0
463.0
459.0
454.0
449.0
442.0
437.0
430.0
427.0
427.0
429.0
432.0
435.0
438.0
441.0
442.0
442.0
441.0
444.0
446.0
449.0
452.0
455.0
458.0
460.0
461.0
461.0
461.0
459.0
458.0
457.0
456.0
456.0
456.0
459.0
460.0
460.0
463.0
465.0
468.0
470.0
471.0
471.0
469.0
467.0
464.0
463.0
461.0
459.0
456.0
455.0
453.0
451.0
450.0
452.0
453.0
453.0
454.0
456.0
458.0
462.0
466.0
467.0
466.0
465.0
466.0
467.0
465.0
463.0
461.0
460.0
459.0
459.0
457.0
456.0
456.0
455.0
455.0
453.0
450.0
446.0
441.0
437.0
432.0
428.0
425.0
423.0
423.0
424.0
425.0
423.0
423.0
421.0
423.0
423.0
423.0
422.0
421.0
422.0
424.0
426.0
429.0
431.0
433.0
434.0
437.0
437.0
435.0
431.0
426.0
421.0
415.0
411.0
407.0
404.0
401.0
401.0
402.0
406.0
409.0
409.0
411.0
413.0
413.0
411.0
409.0
409.0
407.0
406.0
406.0
408.0
411.0
413.0
414.0
414.0
415.0
418.0
421.0
426.0
426.0
424.0
422.0
420.0
420.0
422.0
428.0
437.0
444.0
446.0
447.0
447.0
447.0
447.0
450.0
457.0
463.0
467.0
469.0
468.0
465.0
463.0
457.0
452.0
451.0
456.0
460.0
464.0
471.0
478.0
482.0
487.0
491.0
491.0
490.0
488.0
484.0
484.0
484.0
484.0
486.0
485.0
483.0
476.0
458.0
447.0
441.0
437.0
436.0
439.0
446.0
454.0
468.0
476.0
481.0
481.0
479.0
476.0
472.0
470.0
471.0
471.0
471.0
472.0
466.0
453.0
449.0
446.0
450.0
456.0
458.0
464.0
470.0
475.0
482.0
495.0
512.0
519.0
518.0
512.0
503.0
493.0
484.0
479.0
478.0
476.0
479.0
486.0
479.0
472.0
466.0
459.0
458.0
458.0
456.0
453.0
454.0
462.0
473.0
479.0
483.0
485.0
483.0
470.0
452.0
432.0
416.0
409.0
408.0
410.0
412.0
414.0
407.0
391.0
371.0
355.0
345.0
342.0
344.0
347.0
349.0
350.0
350.0
354.0
357.0
359.0
361.0
367.0
373.0
380.0
387.0
394.0
400.0
407.0
414.0
423.0
433.0
437.0
440.0
443.0
444.0
445.0
445.0
443.0
439.0
432.0
423.0
419.0
417.0
417.0
415.0
411.0
409.0
410.0
416.0
425.0
433.0
438.0
442.0
449.0
453.0
457.0
457.0
459.0
462.0
464.0
464.0
461.0
453.0
443.0
438.0
437.0
435.0
435.0
435.0
437.0
440.0
441.0
441.0
439.0
437.0
433.0
430.0
431.0
434.0
437.0
439.0
440.0
441.0
442.0
443.0
447.0
450.0
452.0
452.0
451.0
451.0
451.0
452.0
453.0
454.0
455.0
456.0
456.0
456.0
457.0
458.0
457.0
457.0
457.0
456.0
455.0
455.0
456.0
459.0
462.0
462.0
462.0
461.0
462.0
463.0
467.0
470.0
471.0
470.0
470.0
469.0
466.0
462.0
460.0
457.0
459.0
462.0
465.0
466.0
467.0
468.0
470.0
470.0
469.0
468.0
467.0
466.0
467.0
467.0
466.0
465.0
462.0
459.0
457.0
454.0
450.0
444.0
442.0
440.0
441.0
441.0
439.0
436.0
435.0
436.0
436.0
433.0
434.0
434.0
433.0
431.0
429.0
429.0
432.0
438.0
444.0
446.0
448.0
450.0
449.0
447.0
445.0
443.0
441.0
440.0
439.0
439.0
440.0
441.0
443.0
444.0
445.0
445.0
447.0
448.0
450.0
452.0
453.0
455.0
457.0
457.0
458.0
458.0
462.0
463.0
465.0
467.0
471.0
475.0
479.0
483.0
485.0
485.0
485.0
486.0
489.0
490.0
489.0
485.0
483.0
481.0
481.0
480.0
479.0
479.0
478.0
477.0
475.0
472.0
467.0
464.0
463.0
461.0
461.0
458.0
456.0
455.0
456.0
457.0
457.0
454.0
452.0
450.0
451.0
450.0
450.0
450.0
454.0
457.0
460.0
462.0
464.0
462.0
461.0
461.0
459.0
456.0
451.0
447.0
443.0
441.0
442.0
441.0
442.0
441.0
440.0
441.0
444.0
445.0
445.0
443.0
439.0
436.0
434.0
432.0
433.0
433.0
435.0
437.0
438.0
439.0
439.0
439.0
439.0
437.0
437.0
437.0
437.0
439.0
438.0
435.0
433.0
432.0
431.0
430.0
430.0
429.0
429.0
431.0
433.0
433.0
432.0
432.0
432.0
432.0
434.0
434.0
433.0
431.0
431.0
433.0
435.0
438.0
440.0
439.0
437.0
439.0
438.0
439.0
440.0
440.0
440.0
441.0
443.0
445.0
446.0
447.0
448.0
447.0
445.0
445.0
444.0
444.0
445.0
446.0
446.0
446.0
445.0
444.0
444.0
443.0
441.0
442.0
442.0
443.0
443.0
442.0
443.0
443.0
443.0
444.0
444.0
446.0
447.0
450.0
455.0
460.0
463.0
467.0
471.0
475.0
478.0
481.0
484.0
485.0
486.0
488.0
488.0
488.0
486.0
483.0
480.0
477.0
474.0
467.0
460.0
452.0
452.0
454.0
454.0
455.0
456.0
459.0
461.0
462.0
461.0
460.0
460.0
459.0
460.0
460.0
462.0
462.0
462.0
461.0
460.0
460.0
462.0
462.0
464.0
464.0
465.0
464.0
465.0
466.0
467.0
468.0
469.0
469.0
469.0
468.0
468.0
466.0
464.0
462.0
459.0
458.0
458.0
459.0
460.0
461.0
462.0
462.0
461.0
460.0
462.0
462.0
463.0
463.0
463.0
461.0
458.0
455.0
453.0
452.0
452.0
452.0
452.0
454.0
457.0
457.0
459.0
460.0
459.0
458.0
458.0
457.0
459.0
460.0
458.0
458.0
457.0
456.0
456.0
456.0
457.0
455.0
451.0
447.0
445.0
442.0
441.0
440.0
440.0
439.0
440.0
440.0
441.0
441.0
441.0
440.0
440.0
440.0
439.0
438.0
438.0
439.0
441.0
443.0
444.0
445.0
445.0
443.0
441.0
440.0
441.0
440.0
439.0
439.0
439.0
438.0
438.0
439.0
439.0
438.0
437.0
435.0
433.0
431.0
430.0
428.0
428.0
428.0
429.0
428.0
427.0
425.0
427.0
428.0
427.0
426.0
425.0
423.0
421.0
417.0
415.0
412.0
412.0
411.0
412.0
412.0
412.0
412.0
412.0
412.0
414.0
415.0
418.0
420.0
422.0
425.0
427.0
428.0
428.0
428.0
429.0
429.0
430.0
430.0
431.0
431.0
432.0
432.0
433.0
433.0
434.0
435.0
436.0
436.0
436.0
437.0
437.0
436.0
434.0
432.0
433.0
433.0
434.0
435.0
435.0
434.0
433.0
434.0
434.0
434.0
434.0
434.0
435.0
436.0
437.0
436.0
437.0
438.0
438.0
437.0
436.0
435.0
434.0
433.0
433.0
431.0
432.0
433.0
435.0
439.0
442.0
445.0
450.0
454.0
459.0
462.0
464.0
464.0
461.0
459.0
456.0
450.0
445.0
442.0
440.0
439.0
437.0
435.0
434.0
432.0
429.0
427.0
427.0
427.0
426.0
425.0
425.0
425.0
425.0
424.0
424.0
423.0
421.0
421.0
420.0
418.0
417.0
417.0
419.0
422.0
424.0
424.0
424.0
423.0
423.0
422.0
422.0
422.0
421.0
419.0
418.0
416.0
415.0
415.0
416.0
416.0
417.0
416.0
415.0
414.0
413.0
410.0
410.0
408.0
409.0
410.0
412.0
411.0
412.0
412.0
412.0
412.0
411.0
410.0
410.0
408.0
409.0
410.0
410.0
410.0
409.0
410.0
410.0
411.0
411.0
409.0
409.0
409.0
409.0
409.0
407.0
405.0
403.0
402.0
403.0
403.0
403.0
403.0
403.0
402.0
402.0
404.0
404.0
403.0
402.0
400.0
401.0
400.0
399.0
398.0
399.0
398.0
398.0
400.0
401.0
401.0
399.0
398.0
398.0
398.0
398.0
399.0
400.0
399.0
399.0
399.0
401.0
403.0
406.0
407.0
409.0
410.0
410.0
411.0
413.0
414.0
416.0
417.0
418.0
418.0
418.0
418.0
418.0
418.0
416.0
415.0
414.0
414.0
412.0
410.0
410.0
410.0
410.0
411.0
410.0
410.0
411.0
411.0
412.0
412.0
412.0
410.0
412.0
412.0
413.0
415.0
417.0
418.0
420.0
421.0
420.0
420.0
420.0
420.0
421.0
422.0
423.0
424.0
423.0
423.0
424.0
425.0
426.0
427.0
426.0
426.0
424.0
421.0
418.0
415.0
413.0
412.0
410.0
407.0
406.0
406.0
405.0
403.0
402.0
400.0
397.0
396.0
394.0
392.0
390.0
389.0
388.0
387.0
385.0
381.0
376.0
368.0
356.0
344.0
326.0
298.0
264.0
230.0
193.0
158.0
131.0
113.0
108.0
110.0
116.0
128.0
146.0
176.0
198.0
211.0
229.0
248.0
260.0
272.0
282.0
286.0
286.0
281.0
271.0
249.0
220.0
186.0
153.0
128.0
106.0
91.0
83.0
76.0
70.0
66.0
64.0
62.0
60.0
58.0
55.0
51.0
48.0
44.0
42.0
42.0
42.0
43.0
44.0
44.0
46.0
49.0
50.0
52.0
55.0
58.0
62.0
65.0
69.0
74.0
79.0
84.0
90.0
96.0
101.0
108.0
114.0
121.0
129.0
136.0
141.0
145.0
149.0
153.0
153.0
155.0
158.0
161.0
158.0
156.0
160.0
166.0
176.0
188.0
200.0
210.0
218.0
224.0
225.0
228.0
232.0
235.0
238.0
239.0
242.0
243.0
245.0
249.0
253.0
258.0
261.0
263.0
265.0
267.0
267.0
267.0
266.0
265.0
264.0
264.0
265.0
268.0
272.0
276.0
278.0
280.0
281.0
283.0
282.0
281.0
279.0
273.0
265.0
253.0
238.0
221.0
205.0
190.0
180.0
172.0
165.0
158.0
152.0
145.0
138.0
131.0
124.0
117.0
114.0
113.0
114.0
114.0
116.0
117.0
117.0
117.0
119.0
121.0
123.0
125.0
128.0
134.0
138.0
140.0
142.0
144.0
147.0
151.0
154.0
157.0
162.0
165.0
169.0
172.0
178.0
181.0
185.0
187.0
191.0
193.0
197.0
201.0
206.0
212.0
217.0
222.0
225.0
226.0
228.0
231.0
235.0
239.0
244.0
249.0
256.0
261.0
265.0
270.0
274.0
279.0
281.0
283.0
286.0
287.0
288.0
288.0
289.0
291.0
291.0
293.0
293.0
294.0
294.0
295.0
295.0
296.0
295.0
296.0
297.0
297.0
298.0
298.0
298.0
298.0
298.0
298.0
300.0
302.0
303.0
305.0
306.0
309.0
310.0
313.0
314.0
315.0
317.0
318.0
319.0
321.0
322.0
323.0
323.0
324.0
325.0
326.0
327.0
328.0
328.0
329.0
331.0
331.0
331.0
332.0
333.0
333.0
334.0
335.0
336.0
336.0
336.0
337.0
338.0
339.0
339.0
340.0
341.0
341.0
342.0
342.0
344.0
344.0
346.0
347.0
349.0
352.0
354.0
358.0
361.0
366.0
369.0
374.0
378.0
381.0
384.0
387.0
390.0
393.0
394.0
394.0
394.0
392.0
391.0
391.0
391.0
389.0
387.0
385.0
384.0
384.0
384.0
384.0
385.0
383.0
383.0
384.0
385.0
386.0
387.0
387.0
387.0
388.0
389.0
390.0
392.0
395.0
401.0
404.0
407.0
411.0
414.0
417.0
422.0
423.0
424.0
424.0
426.0
428.0
431.0
434.0
437.0
438.0
438.0
438.0
439.0
441.0
441.0
441.0
441.0
439.0
439.0
438.0
438.0
440.0
440.0
441.0
441.0
441.0
441.0
441.0
440.0
439.0
438.0
437.0
437.0
435.0
434.0
432.0
429.0
427.0
424.0
421.0
419.0
419.0
420.0
421.0
422.0
424.0
426.0
428.0
430.0
432.0
433.0
434.0
434.0
435.0
434.0
434.0
433.0
431.0
431.0
431.0
431.0
431.0
432.0
432.0
433.0
433.0
432.0
432.0
433.0
435.0
437.0
439.0
444.0
447.0
444.0
442.0
440.0
436.0
435.0
435.0
436.0
439.0
441.0
448.0
455.0
462.0
468.0
475.0
482.0
488.0
496.0
503.0
505.0
504.0
502.0
501.0
499.0
497.0
496.0
498.0
503.0
511.0
520.0
526.0
528.0
526.0
520.0
515.0
511.0
510.0
512.0
514.0
517.0
522.0
526.0
525.0
524.0
524.0
524.0
524.0
524.0
525.0
526.0
522.0
514.0
507.0
500.0
495.0
493.0
494.0
498.0
503.0
508.0
512.0
514.0
516.0
515.0
515.0
513.0
513.0
510.0
509.0
509.0
507.0
507.0
506.0
506.0
504.0
502.0
501.0
500.0
501.0
504.0
506.0
506.0
508.0
510.0
510.0
510.0
509.0
506.0
502.0
499.0
496.0
493.0
491.0
488.0
485.0
485.0
486.0
485.0
487.0
487.0
489.0
490.0
491.0
492.0
493.0
492.0
491.0
490.0
492.0
493.0
493.0
492.0
491.0
491.0
490.0
489.0
489.0
488.0
489.0
491.0
491.0
491.0
490.0
490.0
490.0
488.0
488.0
486.0
484.0
482.0
480.0
478.0
478.0
477.0
474.0
471.0
468.0
466.0
463.0
459.0
455.0
453.0
447.0
444.0
440.0
440.0
437.0
444.0
447.0
450.0
454.0
461.0
468.0
468.0
470.0
469.0
470.0
471.0
473.0
475.0
479.0
478.0
481.0
481.0
481.0
480.0
478.0
475.0
472.0
469.0
467.0
464.0
460.0
454.0
450.0
446.0
442.0
437.0
435.0
433.0
430.0
426.0
424.0
423.0
420.0
422.0
426.0
429.0
434.0
434.0
434.0
433.0
433.0
436.0
438.0
439.0
441.0
442.0
442.0
443.0
443.0
442.0
442.0
443.0
442.0
440.0
440.0
441.0
440.0
438.0
433.0
430.0
427.0
427.0
426.0
425.0
425.0
425.0
427.0
430.0
436.0
439.0
445.0
448.0
450.0
449.0
448.0
449.0
448.0
449.0
450.0
449.0
449.0
447.0
448.0
450.0
454.0
459.0
464.0
468.0
473.0
476.0
478.0
480.0
480.0
479.0
477.0
475.0
473.0
471.0
468.0
465.0
463.0
459.0
458.0
459.0
457.0
456.0
455.0
454.0
453.0
452.0
450.0
449.0
448.0
448.0
447.0
447.0
447.0
448.0
450.0
451.0
453.0
455.0
454.0
456.0
457.0
457.0
459.0
461.0
459.0
458.0
457.0
457.0
456.0
455.0
454.0
453.0
451.0
449.0
447.0
446.0
444.0
442.0
442.0
441.0
440.0
440.0
438.0
437.0
437.0
437.0
436.0
436.0
435.0
433.0
433.0
433.0
433.0
433.0
430.0
429.0
429.0
427.0
426.0
426.0
424.0
424.0
424.0
426.0
428.0
430.0
433.0
437.0
440.0
444.0
446.0
449.0
451.0
452.0
452.0
453.0
451.0
451.0
450.0
449.0
447.0
444.0
441.0
442.0
440.0
438.0
438.0
438.0
438.0
437.0
437.0
436.0
435.0
434.0
433.0
433.0
432.0
432.0
432.0
432.0
432.0
433.0
432.0
432.0
433.0
435.0
437.0
439.0
438.0
437.0
437.0
437.0
436.0
434.0
432.0
430.0
429.0
427.0
426.0
427.0
430.0
430.0
430.0
429.0
430.0
430.0
429.0
430.0
430.0
429.0
427.0
426.0
426.0
426.0
427.0
428.0
430.0
429.0
428.0
427.0
426.0
426.0
426.0
427.0
427.0
429.0
430.0
431.0
433.0
435.0
439.0
443.0
445.0
447.0
447.0
450.0
450.0
449.0
447.0
445.0
443.0
442.0
440.0
439.0
437.0
436.0
436.0
437.0
437.0
439.0
440.0
440.0
439.0
439.0
438.0
437.0
436.0
435.0
435.0
434.0
433.0
433.0
432.0
432.0
432.0
432.0
432.0
431.0
431.0
431.0
430.0
429.0
428.0
425.0
425.0
424.0
424.0
424.0
424.0
424.0
424.0
422.0
419.0
418.0
417.0
416.0
416.0
416.0
415.0
416.0
417.0
418.0
418.0
418.0
417.0
417.0
415.0
414.0
410.0
409.0
408.0
408.0
408.0
409.0
411.0
413.0
416.0
420.0
424.0
429.0
432.0
434.0
436.0
436.0
438.0
440.0
441.0
441.0
442.0
443.0
443.0
442.0
440.0
438.0
439.0
442.0
443.0
443.0
442.0
443.0
442.0
442.0
439.0
436.0
432.0
428.0
429.0
436.0
447.0
452.0
456.0
459.0
462.0
463.0
462.0
459.0
455.0
451.0
447.0
443.0
440.0
435.0
431.0
429.0
426.0
425.0
426.0
427.0
426.0
427.0
426.0
426.0
426.0
425.0
424.0
423.0
421.0
420.0
418.0
416.0
414.0
413.0
412.0
411.0
410.0
410.0
410.0
411.0
413.0
416.0
417.0
418.0
418.0
417.0
418.0
420.0
421.0
424.0
425.0
426.0
427.0
430.0
433.0
433.0
435.0
436.0
437.0
437.0
437.0
438.0
437.0
437.0
435.0
434.0
433.0
432.0
432.0
430.0
429.0
428.0
428.0
427.0
426.0
426.0
424.0
424.0
424.0
422.0
420.0
418.0
418.0
416.0
415.0
415.0
414.0
415.0
415.0
417.0
417.0
418.0
419.0
419.0
420.0
420.0
419.0
419.0
419.0
418.0
416.0
416.0
416.0
417.0
416.0
417.0
418.0
419.0
419.0
420.0
420.0
421.0
422.0
422.0
421.0
420.0
418.0
418.0
418.0
416.0
415.0
413.0
412.0
414.0
417.0
417.0
417.0
417.0
416.0
416.0
417.0
419.0
422.0
426.0
427.0
429.0
430.0
433.0
437.0
439.0
441.0
441.0
441.0
440.0
439.0
439.0
437.0
436.0
434.0
432.0
431.0
430.0
431.0
431.0
432.0
433.0
432.0
432.0
432.0
433.0
434.0
435.0
434.0
433.0
434.0
438.0
444.0
452.0
456.0
458.0
460.0
461.0
458.0
458.0
457.0
453.0
449.0
446.0
445.0
444.0
443.0
441.0
438.0
436.0
435.0
436.0
436.0
436.0
435.0
433.0
431.0
430.0
429.0
429.0
428.0
426.0
423.0
423.0
423.0
423.0
423.0
423.0
422.0
420.0
418.0
417.0
416.0
414.0
413.0
411.0
410.0
411.0
413.0
414.0
414.0
414.0
414.0
414.0
416.0
419.0
420.0
423.0
425.0
427.0
428.0
430.0
430.0
431.0
431.0
431.0
431.0
430.0
431.0
431.0
432.0
431.0
429.0
428.0
428.0
427.0
426.0
425.0
424.0
423.0
421.0
420.0
420.0
420.0
419.0
416.0
415.0
414.0
413.0
414.0
415.0
415.0
417.0
418.0
419.0
418.0
418.0
417.0
416.0
415.0
414.0
414.0
414.0
415.0
415.0
415.0
416.0
416.0
416.0
414.0
413.0
411.0
415.0
419.0
424.0
428.0
434.0
442.0
449.0
457.0
463.0
465.0
468.0
472.0
477.0
481.0
483.0
484.0
482.0
480.0
479.0
476.0
472.0
470.0
469.0
467.0
463.0
461.0
459.0
454.0
450.0
447.0
441.0
439.0
438.0
440.0
442.0
444.0
447.0
451.0
454.0
456.0
458.0
458.0
458.0
457.0
454.0
453.0
451.0
452.0
452.0
453.0
451.0
448.0
446.0
446.0
444.0
444.0
442.0
440.0
438.0
440.0
443.0
445.0
446.0
446.0
447.0
447.0
447.0
446.0
444.0
443.0
442.0
441.0
438.0
439.0
440.0
438.0
436.0
434.0
434.0
437.0
438.0
440.0
442.0
443.0
444.0
444.0
442.0
441.0
439.0
436.0
434.0
432.0
429.0
426.0
424.0
423.0
423.0
424.0
423.0
422.0
421.0
423.0
424.0
426.0
427.0
429.0
429.0
428.0
428.0
427.0
427.0
427.0
425.0
424.0
423.0
421.0
421.0
420.0
419.0
418.0
418.0
418.0
417.0
417.0
416.0
417.0
418.0
419.0
419.0
420.0
423.0
426.0
429.0
433.0
436.0
438.0
441.0
443.0
444.0
444.0
445.0
447.0
448.0
449.0
450.0
453.0
457.0
461.0
463.0
465.0
468.0
471.0
471.0
474.0
473.0
472.0
471.0
470.0
467.0
464.0
461.0
457.0
453.0
450.0
448.0
449.0
450.0
450.0
450.0
450.0
450.0
449.0
446.0
445.0
446.0
446.0
446.0
446.0
446.0
445.0
444.0
443.0
442.0
442.0
441.0
438.0
436.0
435.0
435.0
435.0
434.0
431.0
428.0
426.0
430.0
434.0
437.0
440.0
443.0
445.0
445.0
443.0
441.0
439.0
437.0
436.0
434.0
432.0
431.0
431.0
431.0
432.0
433.0
432.0
432.0
431.0
431.0
429.0
429.0
430.0
431.0
433.0
433.0
434.0
434.0
434.0
434.0
432.0
432.0
433.0
437.0
441.0
444.0
446.0
447.0
448.0
449.0
450.0
452.0
453.0
454.0
454.0
455.0
453.0
454.0
453.0
451.0
448.0
446.0
446.0
447.0
447.0
449.0
450.0
450.0
449.0
449.0
446.0
446.0
445.0
445.0
446.0
446.0
447.0
447.0
447.0
446.0
445.0
445.0
444.0
446.0
447.0
449.0
451.0
451.0
450.0
449.0
447.0
445.0
443.0
440.0
436.0
437.0
437.0
438.0
440.0
441.0
440.0
439.0
437.0
436.0
434.0
433.0
434.0
433.0
435.0
435.0
435.0
436.0
435.0
433.0
432.0
431.0
430.0
427.0
427.0
426.0
426.0
424.0
423.0
424.0
423.0
422.0
421.0
419.0
417.0
417.0
417.0
418.0
420.0
422.0
425.0
427.0
429.0
433.0
437.0
444.0
456.0
466.0
474.0
481.0
488.0
494.0
498.0
498.0
499.0
499.0
499.0
499.0
494.0
488.0
481.0
474.0
470.0
466.0
465.0
463.0
462.0
461.0
459.0
459.0
457.0
456.0
453.0
450.0
448.0
447.0
447.0
447.0
446.0
443.0
442.0
441.0
440.0
440.0
439.0
439.0
437.0
436.0
437.0
437.0
438.0
436.0
435.0
435.0
434.0
433.0
431.0
431.0
429.0
427.0
424.0
423.0
421.0
420.0
420.0
418.0
418.0
416.0
415.0
417.0
416.0
418.0
420.0
421.0
421.0
422.0
423.0
424.0
423.0
423.0
423.0
420.0
418.0
418.0
418.0
419.0
419.0
419.0
420.0
420.0
420.0
420.0
419.0
420.0
420.0
420.0
424.0
427.0
428.0
432.0
436.0
439.0
440.0
442.0
443.0
443.0
444.0
446.0
448.0
449.0
449.0
451.0
454.0
459.0
462.0
463.0
464.0
466.0
466.0
464.0
462.0
459.0
454.0
450.0
446.0
443.0
442.0
440.0
438.0
433.0
431.0
429.0
427.0
423.0
420.0
419.0
417.0
419.0
419.0
419.0
419.0
420.0
420.0
422.0
424.0
425.0
424.0
423.0
423.0
423.0
425.0
426.0
428.0
431.0
433.0
434.0
435.0
434.0
432.0
430.0
427.0
423.0
421.0
418.0
418.0
419.0
421.0
423.0
424.0
426.0
428.0
431.0
432.0
434.0
434.0
434.0
434.0
434.0
432.0
428.0
426.0
426.0
426.0
428.0
431.0
434.0
438.0
441.0
444.0
447.0
450.0
451.0
453.0
455.0
461.0
464.0
465.0
467.0
469.0
468.0
467.0
465.0
463.0
461.0
462.0
462.0
463.0
462.0
462.0
462.0
461.0
463.0
463.0
464.0
465.0
470.0
478.0
484.0
490.0
492.0
493.0
494.0
493.0
492.0
489.0
487.0
483.0
479.0
478.0
477.0
476.0
474.0
473.0
473.0
469.0
468.0
466.0
465.0
463.0
463.0
462.0
460.0
457.0
455.0
454.0
452.0
451.0
451.0
448.0
448.0
448.0
449.0
452.0
455.0
454.0
453.0
454.0
454.0
453.0
453.0
452.0
450.0
448.0
447.0
449.0
452.0
455.0
457.0
461.0
464.0
466.0
467.0
467.0
468.0
470.0
472.0
475.0
476.0
477.0
477.0
476.0
475.0
473.0
471.0
469.0
468.0
467.0
468.0
469.0
472.0
473.0
473.0
473.0
474.0
475.0
476.0
475.0
476.0
475.0
475.0
475.0
475.0
477.0
479.0
481.0
481.0
481.0
479.0
475.0
472.0
468.0
466.0
464.0
464.0
464.0
464.0
464.0
463.0
461.0
460.0
459.0
456.0
454.0
454.0
455.0
458.0
459.0
461.0
462.0
463.0
464.0
464.0
462.0
460.0
458.0
460.0
461.0
462.0
462.0
462.0
462.0
462.0
462.0
464.0
465.0
466.0
466.0
467.0
470.0
473.0
475.0
478.0
480.0
480.0
479.0
478.0
477.0
475.0
474.0
474.0
474.0
473.0
472.0
472.0
471.0
470.0
469.0
467.0
465.0
462.0
461.0
460.0
460.0
461.0
462.0
461.0
463.0
463.0
463.0
463.0
463.0
464.0
464.0
465.0
466.0
466.0
468.0
468.0
467.0
466.0
464.0
463.0
461.0
461.0
460.0
459.0
458.0
458.0
458.0
456.0
454.0
453.0
451.0
448.0
447.0
445.0
443.0
443.0
443.0
443.0
443.0
443.0
443.0
443.0
443.0
445.0
446.0
446.0
446.0
446.0
447.0
448.0
449.0
451.0
454.0
457.0
458.0
459.0
461.0
463.0
463.0
463.0
462.0
461.0
461.0
460.0
459.0
458.0
459.0
459.0
459.0
458.0
457.0
455.0
454.0
453.0
451.0
450.0
450.0
450.0
450.0
451.0
452.0
452.0
452.0
451.0
451.0
451.0
451.0
451.0
453.0
455.0
457.0
458.0
459.0
460.0
459.0
459.0
458.0
456.0
455.0
454.0
454.0
454.0
455.0
457.0
458.0
458.0
458.0
457.0
457.0
456.0
455.0
454.0
455.0
455.0
455.0
453.0
452.0
452.0
450.0
447.0
446.0
445.0
444.0
443.0
443.0
445.0
448.0
451.0
452.0
455.0
458.0
459.0
462.0
464.0
465.0
465.0
466.0
467.0
467.0
468.0
468.0
468.0
467.0
465.0
464.0
461.0
459.0
458.0
458.0
458.0
460.0
460.0
461.0
460.0
461.0
460.0
461.0
462.0
463.0
465.0
468.0
470.0
471.0
473.0
474.0
474.0
471.0
469.0
467.0
464.0
462.0
461.0
460.0
461.0
461.0
460.0
462.0
464.0
464.0
464.0
462.0
461.0
460.0
458.0
455.0
452.0
449.0
446.0
444.0
441.0
441.0
440.0
441.0
441.0
443.0
445.0
446.0
447.0
447.0
446.0
446.0
446.0
447.0
446.0
447.0
448.0
448.0
448.0
451.0
452.0
454.0
457.0
459.0
461.0
463.0
467.0
472.0
472.0
471.0
470.0
468.0
465.0
462.0
459.0
457.0
457.0
458.0
459.0
461.0
461.0
461.0
461.0
460.0
459.0
458.0
457.0
456.0
454.0
453.0
453.0
453.0
454.0
455.0
455.0
457.0
457.0
457.0
457.0
458.0
458.0
458.0
457.0
455.0
452.0
450.0
448.0
445.0
443.0
443.0
440.0
440.0
439.0
439.0
438.0
439.0
439.0
440.0
441.0
442.0
444.0
447.0
449.0
451.0
453.0
455.0
455.0
456.0
456.0
456.0
457.0
460.0
461.0
462.0
463.0
464.0
466.0
468.0
469.0
473.0
477.0
480.0
483.0
486.0
489.0
491.0
491.0
491.0
491.0
489.0
490.0
490.0
489.0
491.0
492.0
494.0
493.0
492.0
491.0
491.0
490.0
489.0
489.0
488.0
489.0
489.0
487.0
488.0
488.0
489.0
491.0
494.0
498.0
501.0
503.0
505.0
506.0
507.0
508.0
509.0
508.0
509.0
509.0
511.0
513.0
514.0
514.0
515.0
515.0
515.0
514.0
514.0
514.0
514.0
513.0
515.0
518.0
520.0
521.0
521.0
521.0
520.0
519.0
520.0
520.0
519.0
519.0
520.0
520.0
521.0
520.0
519.0
518.0
517.0
515.0
516.0
515.0
516.0
518.0
519.0
521.0
524.0
526.0
529.0
532.0
534.0
535.0
537.0
538.0
540.0
542.0
544.0
546.0
550.0
551.0
555.0
556.0
559.0
562.0
562.0
562.0
562.0
564.0
566.0
567.0
568.0
569.0
569.0
569.0
567.0
565.0
564.0
560.0
555.0
549.0
543.0
537.0
532.0
529.0
527.0
526.0
525.0
525.0
525.0
526.0
525.0
522.0
522.0
522.0
520.0
520.0
520.0
520.0
520.0
520.0
521.0
521.0
521.0
522.0
523.0
523.0
523.0
524.0
525.0
526.0
528.0
529.0
530.0
530.0
529.0
527.0
527.0
526.0
526.0
526.0
528.0
531.0
536.0
542.0
546.0
546.0
542.0
538.0
534.0
533.0
535.0
537.0
543.0
549.0
556.0
562.0
566.0
568.0
568.0
567.0
565.0
563.0
559.0
557.0
555.0
552.0
549.0
543.0
534.0
523.0
513.0
507.0
502.0
498.0
489.0
484.0
483.0
481.0
481.0
477.0
478.0
477.0
477.0
476.0
476.0
475.0
474.0
473.0
472.0
472.0
472.0
471.0
472.0
471.0
473.0
476.0
480.0
487.0
494.0
506.0
519.0
537.0
555.0
572.0
588.0
602.0
614.0
622.0
630.0
640.0
647.0
653.0
658.0
662.0
666.0
668.0
672.0
674.0
676.0
678.0
681.0
683.0
687.0
691.0
694.0
699.0
704.0
707.0
711.0
715.0
723.0
735.0
747.0
757.0
763.0
763.0
763.0
763.0
763.0
763.0
763.0
763.0
763.0
763.0
763.0
763.0
763.0
763.0
763.0
763.0
763.0
763.0
763.0
763.0
763.0
763.0
763.0
763.0
763.0
763.0
763.0
763.0
763.0
763.0
763.0
763.0
763.0
763.0
763.0
763.0
763.0
763.0
763.0
763.0
763.0
763.0
763.0
763.0
763.0
763.0
763.0
763.0
763.0
763.0
763.0
763.0
763.0
763.0
763.0
763.0
763.0
763.0
761.0
755.0
749.0
743.0
739.0
737.0
736.0
739.0
748.0
755.0
761.0
763.0
763.0
763.0
759.0
755.0
747.0
738.0
733.0
731.0
727.0
724.0
722.0
722.0
723.0
728.0
735.0
738.0
744.0
748.0
753.0
756.0
758.0
756.0
752.0
746.0
741.0
734.0
724.0
713.0
705.0
698.0
695.0
695.0
694.0
690.0
684.0
679.0
673.0
666.0
657.0
648.0
642.0
634.0
630.0
627.0
624.0
623.0
622.0
622.0
620.0
617.0
614.0
611.0
610.0
610.0
612.0
615.0
622.0
626.0
629.0
628.0
622.0
611.0
598.0
587.0
583.0
581.0
577.0
572.0
567.0
559.0
553.0
546.0
541.0
527.0
514.0
512.0
507.0
514.0
539.0
564.0
574.0
565.0
540.0
512.0
481.0
454.0
432.0
421.0
417.0
416.0
418.0
420.0
422.0
422.0
423.0
422.0
420.0
416.0
409.0
401.0
391.0
385.0
383.0
384.0
387.0
391.0
395.0
397.0
397.0
398.0
397.0
397.0
398.0
389.0
385.0
386.0
385.0
386.0
389.0
394.0
398.0
397.0
391.0
392.0
391.0
387.0
383.0
383.0
389.0
397.0
408.0
417.0
424.0
429.0
433.0
433.0
431.0
429.0
430.0
436.0
445.0
456.0
468.0
483.0
500.0
513.0
524.0
533.0
543.0
558.0
569.0
579.0
588.0
591.0
593.0
593.0
592.0
590.0
588.0
585.0
582.0
578.0
571.0
564.0
561.0
562.0
566.0
571.0
576.0
579.0
582.0
581.0
580.0
583.0
586.0
571.0
557.0
551.0
547.0
541.0
534.0
527.0
527.0
532.0
536.0
538.0
539.0
541.0
541.0
537.0
532.0
528.0
524.0
523.0
524.0
526.0
530.0
537.0
541.0
541.0
540.0
540.0
541.0
542.0
539.0
540.0
548.0
557.0
565.0
572.0
575.0
576.0
576.0
566.0
536.0
480.0
381.0
200.0
58.0
1.0
1.0
1.0
1.0
1.0
761.0
761.0
759.0
756.0
752.0
748.0
748.0
749.0
748.0
747.0
747.0
747.0
747.0
748.0
748.0
749.0
750.0
750.0
750.0
750.0
750.0
751.0
751.0
751.0
751.0
752.0
753.0
754.0
754.0
755.0
756.0
756.0
758.0
760.0
762.0
762.0
754.0
1.0
1.0
1.0
1.0
1.0
1.0
1.0
1.0
1.0
1.0
1.0
1.0
1.0
1.0
1.0
1.0
1.0
1.0
1.0
1.0
1.0
1.0
1.0
1.0
1.0
1.0
1.0
1.0
1.0
1.0
1.0
1.0
1.0
1.0
1.0
1.0
1.0
1.0
1.0
1.0
1.0
1.0
1.0
1.0
1.0
1.0
1.0
1.0
1.0
1.0
1.0
1.0
1.0
1.0
1.0
1.0
1.0
1.0
1.0
1.0
1.0
1.0
1.0
1.0
1.0
1.0
1.0
1.0
1.0
1.0
1.0
1.0
1.0
1.0
1.0
1.0
1.0
1.0
1.0
1.0
1.0
1.0
1.0
1.0
1.0
1.0
1.0
1.0
1.0
1.0
1.0
1.0
1.0
1.0
1.0
1.0
24.0
89.0
165.0
243.0
294.0
319.0
322.0
321.0
318.0
303.0
281.0
254.0
230.0
209.0
192.0
178.0
169.0
168.0
169.0
172.0
173.0
172.0
164.0
144.0
108.0
52.0
1.0
1.0
1.0
1.0
1.0
23.0
99.0
174.0
240.0
283.0
293.0
266.0
204.0
124.0
48.0
1.0
1.0
1.0
1.0
1.0
1.0
1.0
1.0
733.0
762.0
760.0
761.0
762.0
13.0
1.0
1.0
1.0
1.0
1.0
1.0
1.0
1.0
1.0
1.0
1.0
1.0
1.0
761.0
760.0
759.0
758.0
757.0
755.0
754.0
754.0
754.0
753.0
753.0
751.0
749.0
747.0
746.0
747.0
748.0
748.0
749.0
750.0
752.0
753.0
754.0
757.0
759.0
760.0
761.0
762.0
762.0
762.0
762.0
761.0
1.0
1.0
180.0
738.0
763.0
763.0
763.0
763.0
763.0
763.0
763.0
763.0
763.0
763.0
763.0
763.0
763.0
763.0
763.0
763.0
763.0
763.0
763.0
763.0
763.0
763.0
763.0
763.0
763.0
763.0
763.0
763.0
763.0
763.0
763.0
763.0
763.0
763.0
763.0
763.0
763.0
763.0
763.0
763.0
763.0
763.0
763.0
763.0
763.0
